# Temperatura_=_31.75
# Concentracion g/m^3_=_15000.0
# C_Vs_to_Am_M_A/Vsm_=_65563218390.804596
# pendiente_HvsI_1/m_=_3716.3
# ordenada_HvsI_A/m_=_1297.0
# frecuencia_Hz_=_302430.99117942137

Tiempo_(s)	Campo_(V.s)	Magnetizacion_(V.s)	Campo_(kA/m)	Magnetizacion_(A/m)
0.000000e+00	-7.915308e-06	-1.239937e-08	-5.689986e+01	-8.111193e+02
1.000000e-08	-7.912176e-06	-1.239523e-08	-5.687735e+01	-8.108131e+02
2.000000e-08	-7.906375e-06	-1.238910e-08	-5.683564e+01	-8.103636e+02
3.000000e-08	-7.898024e-06	-1.238268e-08	-5.677561e+01	-8.097814e+02
4.000000e-08	-7.886899e-06	-1.237501e-08	-5.669564e+01	-8.090798e+02
5.000000e-08	-7.872840e-06	-1.236497e-08	-5.659458e+01	-8.082735e+02
6.000000e-08	-7.855952e-06	-1.235175e-08	-5.647317e+01	-8.073764e+02
7.000000e-08	-7.836682e-06	-1.233780e-08	-5.633465e+01	-8.064005e+02
8.000000e-08	-7.815128e-06	-1.232492e-08	-5.617971e+01	-8.053540e+02
9.000000e-08	-7.790731e-06	-1.232402e-08	-5.600432e+01	-8.042408e+02
1.000000e-07	-7.763082e-06	-1.231978e-08	-5.580557e+01	-8.030602e+02
1.100000e-07	-7.732399e-06	-1.228010e-08	-5.558500e+01	-8.018072e+02
1.200000e-07	-7.698947e-06	-1.223889e-08	-5.534453e+01	-8.004735e+02
1.300000e-07	-7.662882e-06	-1.220857e-08	-5.508527e+01	-7.990482e+02
1.400000e-07	-7.624531e-06	-1.217428e-08	-5.480958e+01	-7.975194e+02
1.500000e-07	-7.584081e-06	-1.214482e-08	-5.451880e+01	-7.958755e+02
1.600000e-07	-7.541257e-06	-1.212131e-08	-5.421096e+01	-7.941055e+02
1.700000e-07	-7.495733e-06	-1.209451e-08	-5.388371e+01	-7.922006e+02
1.800000e-07	-7.447528e-06	-1.202828e-08	-5.353718e+01	-7.901537e+02
1.900000e-07	-7.396407e-06	-1.201120e-08	-5.316969e+01	-7.879600e+02
2.000000e-07	-7.342281e-06	-1.199800e-08	-5.278060e+01	-7.856162e+02
2.100000e-07	-7.285459e-06	-1.194303e-08	-5.237214e+01	-7.831202e+02
2.200000e-07	-7.226016e-06	-1.192600e-08	-5.194483e+01	-7.804710e+02
2.300000e-07	-7.163977e-06	-1.188270e-08	-5.149885e+01	-7.776677e+02
2.400000e-07	-7.099238e-06	-1.182206e-08	-5.103347e+01	-7.747097e+02
2.500000e-07	-7.031759e-06	-1.176311e-08	-5.054839e+01	-7.715964e+02
2.600000e-07	-6.961653e-06	-1.172004e-08	-5.004443e+01	-7.683274e+02
2.700000e-07	-6.888785e-06	-1.166489e-08	-4.952061e+01	-7.649027e+02
2.800000e-07	-6.813153e-06	-1.158917e-08	-4.897692e+01	-7.613226e+02
2.900000e-07	-6.734769e-06	-1.154487e-08	-4.841346e+01	-7.575883e+02
3.000000e-07	-6.653692e-06	-1.149530e-08	-4.783062e+01	-7.537012e+02
3.100000e-07	-6.570286e-06	-1.143559e-08	-4.723106e+01	-7.496635e+02
3.200000e-07	-6.484705e-06	-1.137465e-08	-4.661585e+01	-7.454768e+02
3.300000e-07	-6.396841e-06	-1.130641e-08	-4.598423e+01	-7.411423e+02
3.400000e-07	-6.306608e-06	-1.123797e-08	-4.533558e+01	-7.366598e+02
3.500000e-07	-6.214122e-06	-1.116450e-08	-4.467074e+01	-7.320274e+02
3.600000e-07	-6.119458e-06	-1.110028e-08	-4.399024e+01	-7.272409e+02
3.700000e-07	-6.022600e-06	-1.102496e-08	-4.329396e+01	-7.222941e+02
3.800000e-07	-5.923493e-06	-1.093746e-08	-4.258153e+01	-7.171787e+02
3.900000e-07	-5.822200e-06	-1.085433e-08	-4.185338e+01	-7.118853e+02
4.000000e-07	-5.718883e-06	-1.077564e-08	-4.111067e+01	-7.064038e+02
4.100000e-07	-5.613549e-06	-1.068825e-08	-4.035347e+01	-7.007249e+02
4.200000e-07	-5.506181e-06	-1.059022e-08	-3.958165e+01	-6.948408e+02
4.300000e-07	-5.396867e-06	-1.049991e-08	-3.879583e+01	-6.887457e+02
4.400000e-07	-5.285681e-06	-1.040495e-08	-3.799656e+01	-6.824367e+02
4.500000e-07	-5.172560e-06	-1.030073e-08	-3.718338e+01	-6.759134e+02
4.600000e-07	-5.057330e-06	-1.019967e-08	-3.635504e+01	-6.691774e+02
4.700000e-07	-4.940089e-06	-1.010314e-08	-3.551225e+01	-6.622315e+02
4.800000e-07	-4.821084e-06	-9.997224e-09	-3.465677e+01	-6.550784e+02
4.900000e-07	-4.700406e-06	-9.885073e-09	-3.378926e+01	-6.477192e+02
5.000000e-07	-4.578030e-06	-9.770800e-09	-3.290956e+01	-6.401522e+02
5.100000e-07	-4.453909e-06	-9.646613e-09	-3.201730e+01	-6.323720e+02
5.200000e-07	-4.328165e-06	-9.514810e-09	-3.111338e+01	-6.243693e+02
5.300000e-07	-4.200856e-06	-9.380912e-09	-3.019820e+01	-6.161304e+02
5.400000e-07	-4.072085e-06	-9.245958e-09	-2.927252e+01	-6.076389e+02
5.500000e-07	-3.941811e-06	-9.111105e-09	-2.833604e+01	-5.988761e+02
5.600000e-07	-3.809963e-06	-8.979382e-09	-2.738824e+01	-5.898233e+02
5.700000e-07	-3.676669e-06	-8.845585e-09	-2.643004e+01	-5.804632e+02
5.800000e-07	-3.541956e-06	-8.700961e-09	-2.546165e+01	-5.707815e+02
5.900000e-07	-3.405879e-06	-8.548098e-09	-2.448345e+01	-5.607681e+02
6.000000e-07	-3.268568e-06	-8.391998e-09	-2.349637e+01	-5.504174e+02
6.100000e-07	-3.129949e-06	-8.226144e-09	-2.249990e+01	-5.397279e+02
6.200000e-07	-2.989853e-06	-8.047938e-09	-2.149281e+01	-5.287012e+02
6.300000e-07	-2.848519e-06	-7.867459e-09	-2.047682e+01	-5.173402e+02
6.400000e-07	-2.706111e-06	-7.688106e-09	-1.945310e+01	-5.056474e+02
6.500000e-07	-2.562652e-06	-7.502693e-09	-1.842184e+01	-4.936222e+02
6.600000e-07	-2.418231e-06	-7.312503e-09	-1.738366e+01	-4.812598e+02
6.700000e-07	-2.272839e-06	-7.122628e-09	-1.633849e+01	-4.685493e+02
6.800000e-07	-2.126660e-06	-6.927803e-09	-1.528768e+01	-4.554740e+02
6.900000e-07	-1.979846e-06	-6.722504e-09	-1.423229e+01	-4.420119e+02
7.000000e-07	-1.832422e-06	-6.508190e-09	-1.317252e+01	-4.281370e+02
7.100000e-07	-1.684430e-06	-6.287275e-09	-1.210867e+01	-4.138214e+02
7.200000e-07	-1.535981e-06	-6.057753e-09	-1.104153e+01	-3.990383e+02
7.300000e-07	-1.387137e-06	-5.821200e-09	-9.971548e+00	-3.837639e+02
7.400000e-07	-1.237907e-06	-5.579700e-09	-8.898798e+00	-3.679795e+02
7.500000e-07	-1.088272e-06	-5.331394e-09	-7.823133e+00	-3.516724e+02
7.600000e-07	-9.382580e-07	-5.075722e-09	-6.744746e+00	-3.348356e+02
7.700000e-07	-7.878976e-07	-4.814412e-09	-5.663868e+00	-3.174660e+02
7.800000e-07	-6.372288e-07	-4.544966e-09	-4.580773e+00	-2.995622e+02
7.900000e-07	-4.862644e-07	-4.265252e-09	-3.495553e+00	-2.811206e+02
8.000000e-07	-3.350866e-07	-3.976593e-09	-2.408798e+00	-2.621315e+02
8.100000e-07	-1.838455e-07	-3.676629e-09	-1.321589e+00	-2.425757e+02
8.200000e-07	-3.252847e-08	-3.364110e-09	-2.338337e-01	-2.224223e+02
8.300000e-07	1.188490e-07	-3.041780e-09	8.543562e-01	-2.016273e+02
8.400000e-07	2.702694e-07	-2.710729e-09	1.942855e+00	-1.801350e+02
8.500000e-07	4.216380e-07	-2.370058e-09	3.030980e+00	-1.578814e+02
8.600000e-07	5.728667e-07	-2.019369e-09	4.118101e+00	-1.348001e+02
8.700000e-07	7.239425e-07	-1.656599e-09	5.204122e+00	-1.108293e+02
8.800000e-07	8.747924e-07	-1.279196e-09	6.288519e+00	-8.592054e+01
8.900000e-07	1.025326e-06	-8.857696e-10	7.370641e+00	-6.004800e+01
9.000000e-07	1.175447e-06	-4.782024e-10	8.449802e+00	-3.321624e+01
9.100000e-07	1.325180e-06	-5.846563e-11	9.526166e+00	-5.466981e+00
9.200000e-07	1.474489e-06	3.742453e-10	1.059949e+01	2.311694e+01
9.300000e-07	1.623302e-06	8.197285e-10	1.166924e+01	5.241076e+01
9.400000e-07	1.771606e-06	1.276048e-09	1.273534e+01	8.225043e+01
9.500000e-07	1.919285e-06	1.739885e-09	1.379694e+01	1.124387e+02
9.600000e-07	2.066194e-06	2.204782e-09	1.485301e+01	1.427543e+02
9.700000e-07	2.212317e-06	2.665992e-09	1.590342e+01	1.729630e+02
9.800000e-07	2.357598e-06	3.120454e-09	1.694779e+01	2.028303e+02
9.900000e-07	2.502003e-06	3.564648e-09	1.798586e+01	2.321338e+02
1.000000e-06	2.645446e-06	3.997546e-09	1.901701e+01	2.606749e+02
1.010000e-06	2.787824e-06	4.417165e-09	2.004051e+01	2.882877e+02
1.020000e-06	2.929163e-06	4.820481e-09	2.105653e+01	3.148458e+02
1.030000e-06	3.069334e-06	5.206192e-09	2.206416e+01	3.402651e+02
1.040000e-06	3.208178e-06	5.573661e-09	2.306226e+01	3.645033e+02
1.050000e-06	3.345709e-06	5.921123e-09	2.405091e+01	3.875565e+02
1.060000e-06	3.481941e-06	6.251096e-09	2.503022e+01	4.094529e+02
1.070000e-06	3.616816e-06	6.567677e-09	2.599978e+01	4.302450e+02
1.080000e-06	3.750391e-06	6.870624e-09	2.696000e+01	4.500007e+02
1.090000e-06	3.882701e-06	7.156994e-09	2.791113e+01	4.687952e+02
1.100000e-06	4.013628e-06	7.428990e-09	2.885230e+01	4.867033e+02
1.110000e-06	4.143067e-06	7.689395e-09	2.978279e+01	5.037935e+02
1.120000e-06	4.271043e-06	7.938289e-09	3.070275e+01	5.201245e+02
1.130000e-06	4.397593e-06	8.176700e-09	3.161247e+01	5.357435e+02
1.140000e-06	4.522691e-06	8.405176e-09	3.251175e+01	5.506863e+02
1.150000e-06	4.646199e-06	8.622343e-09	3.339959e+01	5.649796e+02
1.160000e-06	4.768011e-06	8.826200e-09	3.427525e+01	5.786434e+02
1.170000e-06	4.888144e-06	9.018106e-09	3.513883e+01	5.916942e+02
1.180000e-06	5.006593e-06	9.201479e-09	3.599031e+01	6.041483e+02
1.190000e-06	5.123200e-06	9.379198e-09	3.682855e+01	6.160236e+02
1.200000e-06	5.237785e-06	9.551393e-09	3.765226e+01	6.273411e+02
1.210000e-06	5.350317e-06	9.718666e-09	3.846121e+01	6.381251e+02
1.220000e-06	5.460842e-06	9.880241e-09	3.925572e+01	6.484025e+02
1.230000e-06	5.569500e-06	1.003307e-08	4.003682e+01	6.582015e+02
1.240000e-06	5.676250e-06	1.017756e-08	4.080420e+01	6.675496e+02
1.250000e-06	5.780864e-06	1.031530e-08	4.155623e+01	6.764719e+02
1.260000e-06	5.883299e-06	1.044506e-08	4.229259e+01	6.849900e+02
1.270000e-06	5.983631e-06	1.056754e-08	4.301384e+01	6.931212e+02
1.280000e-06	6.081728e-06	1.068324e-08	4.371902e+01	7.008786e+02
1.290000e-06	6.177474e-06	1.079427e-08	4.440729e+01	7.082720e+02
1.300000e-06	6.270984e-06	1.090053e-08	4.507950e+01	7.153092e+02
1.310000e-06	6.362367e-06	1.100171e-08	4.573641e+01	7.219979e+02
1.320000e-06	6.451489e-06	1.110067e-08	4.637707e+01	7.283473e+02
1.330000e-06	6.538217e-06	1.119496e-08	4.700052e+01	7.343694e+02
1.340000e-06	6.622701e-06	1.128092e-08	4.760784e+01	7.400797e+02
1.350000e-06	6.704887e-06	1.135966e-08	4.819864e+01	7.454972e+02
1.360000e-06	6.784520e-06	1.143479e-08	4.877109e+01	7.506437e+02
1.370000e-06	6.861608e-06	1.150713e-08	4.932525e+01	7.555421e+02
1.380000e-06	6.936122e-06	1.157681e-08	4.986090e+01	7.602145e+02
1.390000e-06	7.008028e-06	1.164542e-08	5.037780e+01	7.646801e+02
1.400000e-06	7.077441e-06	1.171317e-08	5.087678e+01	7.689534e+02
1.410000e-06	7.144333e-06	1.177671e-08	5.135764e+01	7.730427e+02
1.420000e-06	7.208655e-06	1.183591e-08	5.182002e+01	7.769499e+02
1.430000e-06	7.270507e-06	1.189272e-08	5.226465e+01	7.806703e+02
1.440000e-06	7.329913e-06	1.194581e-08	5.269169e+01	7.841940e+02
1.450000e-06	7.386753e-06	1.199395e-08	5.310029e+01	7.875082e+02
1.460000e-06	7.440934e-06	1.203553e-08	5.348978e+01	7.905988e+02
1.470000e-06	7.492132e-06	1.207343e-08	5.385782e+01	7.934539e+02
1.480000e-06	7.540278e-06	1.211128e-08	5.420393e+01	7.960651e+02
1.490000e-06	7.585700e-06	1.214778e-08	5.453044e+01	7.984301e+02
1.500000e-06	7.628440e-06	1.217992e-08	5.483768e+01	8.005528e+02
1.510000e-06	7.668365e-06	1.220867e-08	5.512468e+01	8.024440e+02
1.520000e-06	7.705663e-06	1.223589e-08	5.539280e+01	8.041202e+02
1.530000e-06	7.740388e-06	1.226009e-08	5.564243e+01	8.056017e+02
1.540000e-06	7.772252e-06	1.228066e-08	5.587148e+01	8.069108e+02
1.550000e-06	7.801388e-06	1.229807e-08	5.608094e+01	8.080688e+02
1.560000e-06	7.827782e-06	1.231284e-08	5.627067e+01	8.090944e+02
1.570000e-06	7.851232e-06	1.232517e-08	5.643924e+01	8.100014e+02
1.580000e-06	7.871928e-06	1.233641e-08	5.658802e+01	8.107979e+02
1.590000e-06	7.889857e-06	1.234778e-08	5.671690e+01	8.114860e+02
1.600000e-06	7.904825e-06	1.235697e-08	5.682450e+01	8.120623e+02
1.610000e-06	7.916765e-06	1.236343e-08	5.691033e+01	8.125193e+02
1.620000e-06	7.925615e-06	1.236909e-08	5.697395e+01	8.128473e+02
1.630000e-06	7.931521e-06	1.237467e-08	5.701640e+01	8.130367e+02
1.640000e-06	7.934676e-06	1.237734e-08	5.703908e+01	8.130795e+02
1.650000e-06	7.935012e-06	1.237534e-08	5.704150e+01	8.129714e+02
1.660000e-06	7.932650e-06	1.237061e-08	5.702452e+01	8.127125e+02
1.670000e-06	7.927725e-06	1.236206e-08	5.698912e+01	8.123077e+02
1.680000e-06	7.920118e-06	1.235465e-08	5.693443e+01	8.117664e+02
1.690000e-06	7.909844e-06	1.234688e-08	5.686058e+01	8.111012e+02
1.700000e-06	7.896777e-06	1.233855e-08	5.676664e+01	8.103265e+02
1.710000e-06	7.880971e-06	1.232878e-08	5.665303e+01	8.094568e+02
1.720000e-06	7.862814e-06	1.231411e-08	5.652250e+01	8.085048e+02
1.730000e-06	7.842427e-06	1.229314e-08	5.637595e+01	8.074799e+02
1.740000e-06	7.819255e-06	1.224649e-08	5.620937e+01	8.063876e+02
1.750000e-06	7.792647e-06	1.222251e-08	5.601810e+01	8.052286e+02
1.760000e-06	7.762444e-06	1.222280e-08	5.580098e+01	8.039992e+02
1.770000e-06	7.729221e-06	1.220641e-08	5.556215e+01	8.026922e+02
1.780000e-06	7.693731e-06	1.219193e-08	5.530703e+01	8.012972e+02
1.790000e-06	7.655912e-06	1.218277e-08	5.503517e+01	7.998026e+02
1.800000e-06	7.615922e-06	1.217805e-08	5.474769e+01	7.981965e+02
1.810000e-06	7.573795e-06	1.214596e-08	5.444486e+01	7.964677e+02
1.820000e-06	7.529124e-06	1.215583e-08	5.412374e+01	7.946066e+02
1.830000e-06	7.481915e-06	1.213144e-08	5.378437e+01	7.926056e+02
1.840000e-06	7.431940e-06	1.208226e-08	5.342512e+01	7.904592e+02
1.850000e-06	7.378996e-06	1.205794e-08	5.304453e+01	7.881634e+02
1.860000e-06	7.323159e-06	1.197420e-08	5.264314e+01	7.857162e+02
1.870000e-06	7.264578e-06	1.193821e-08	5.222203e+01	7.831159e+02
1.880000e-06	7.203463e-06	1.189759e-08	5.178270e+01	7.803618e+02
1.890000e-06	7.139591e-06	1.187022e-08	5.132355e+01	7.774532e+02
1.900000e-06	7.072930e-06	1.183344e-08	5.084435e+01	7.743895e+02
1.910000e-06	7.003501e-06	1.176147e-08	5.034525e+01	7.711702e+02
1.920000e-06	6.931265e-06	1.173889e-08	4.982598e+01	7.677951e+02
1.930000e-06	6.856469e-06	1.166080e-08	4.928831e+01	7.642644e+02
1.940000e-06	6.778930e-06	1.161366e-08	4.873091e+01	7.605791e+02
1.950000e-06	6.698707e-06	1.156688e-08	4.815422e+01	7.567406e+02
1.960000e-06	6.616070e-06	1.149535e-08	4.756018e+01	7.527506e+02
1.970000e-06	6.531036e-06	1.143693e-08	4.694890e+01	7.486112e+02
1.980000e-06	6.443542e-06	1.134990e-08	4.631995e+01	7.443238e+02
1.990000e-06	6.353712e-06	1.130222e-08	4.567419e+01	7.398886e+02
2.000000e-06	6.261806e-06	1.122420e-08	4.501352e+01	7.353044e+02
2.010000e-06	6.167632e-06	1.115218e-08	4.433654e+01	7.305676e+02
2.020000e-06	6.071120e-06	1.108202e-08	4.364275e+01	7.256727e+02
2.030000e-06	5.972432e-06	1.100341e-08	4.293333e+01	7.206121e+02
2.040000e-06	5.871719e-06	1.092397e-08	4.220935e+01	7.153766e+02
2.050000e-06	5.768911e-06	1.083805e-08	4.147030e+01	7.099562e+02
2.060000e-06	5.664007e-06	1.076352e-08	4.071619e+01	7.043414e+02
2.070000e-06	5.557194e-06	1.066452e-08	3.994836e+01	6.985235e+02
2.080000e-06	5.448509e-06	1.056917e-08	3.916707e+01	6.924963e+02
2.090000e-06	5.337890e-06	1.047320e-08	3.837187e+01	6.862558e+02
2.100000e-06	5.225264e-06	1.038495e-08	3.756225e+01	6.798009e+02
2.110000e-06	5.110720e-06	1.028427e-08	3.673884e+01	6.731326e+02
2.120000e-06	4.994258e-06	1.017901e-08	3.590164e+01	6.662535e+02
2.130000e-06	4.875780e-06	1.006551e-08	3.504995e+01	6.591664e+02
2.140000e-06	4.755349e-06	9.947661e-09	3.418423e+01	6.518730e+02
2.150000e-06	4.633205e-06	9.837301e-09	3.330619e+01	6.443728e+02
2.160000e-06	4.509393e-06	9.726977e-09	3.241615e+01	6.366616e+02
2.170000e-06	4.383980e-06	9.615190e-09	3.151461e+01	6.287313e+02
2.180000e-06	4.256937e-06	9.490291e-09	3.060135e+01	6.205696e+02
2.190000e-06	4.128213e-06	9.362487e-09	2.967601e+01	6.121609e+02
2.200000e-06	3.998001e-06	9.227018e-09	2.873996e+01	6.034869e+02
2.210000e-06	3.866335e-06	9.089789e-09	2.779347e+01	5.945289e+02
2.220000e-06	3.733315e-06	8.946823e-09	2.683725e+01	5.852689e+02
2.230000e-06	3.598939e-06	8.798679e-09	2.587128e+01	5.756915e+02
2.240000e-06	3.463099e-06	8.642417e-09	2.489478e+01	5.657852e+02
2.250000e-06	3.325916e-06	8.486395e-09	2.390863e+01	5.555429e+02
2.260000e-06	3.187559e-06	8.333033e-09	2.291404e+01	5.449618e+02
2.270000e-06	3.048047e-06	8.174749e-09	2.191114e+01	5.340428e+02
2.280000e-06	2.907327e-06	8.006399e-09	2.089956e+01	5.227885e+02
2.290000e-06	2.765417e-06	7.829869e-09	1.987944e+01	5.112018e+02
2.300000e-06	2.622412e-06	7.648538e-09	1.885143e+01	4.992834e+02
2.310000e-06	2.478382e-06	7.460592e-09	1.781605e+01	4.870298e+02
2.320000e-06	2.333490e-06	7.270874e-09	1.677449e+01	4.744323e+02
2.330000e-06	2.187865e-06	7.074446e-09	1.572765e+01	4.614761e+02
2.340000e-06	2.041502e-06	6.868028e-09	1.467551e+01	4.481407e+02
2.350000e-06	1.894437e-06	6.653471e-09	1.361832e+01	4.344010e+02
2.360000e-06	1.746753e-06	6.437196e-09	1.255668e+01	4.202297e+02
2.370000e-06	1.598521e-06	6.218456e-09	1.149111e+01	4.055992e+02
2.380000e-06	1.449824e-06	5.989763e-09	1.042218e+01	3.904847e+02
2.390000e-06	1.300706e-06	5.750149e-09	9.350233e+00	3.748655e+02
2.400000e-06	1.151241e-06	5.502953e-09	8.275795e+00	3.587271e+02
2.410000e-06	1.001446e-06	5.250024e-09	7.198978e+00	3.420606e+02
2.420000e-06	8.512849e-07	4.989311e-09	6.119533e+00	3.248620e+02
2.430000e-06	7.008095e-07	4.721685e-09	5.037828e+00	3.071298e+02
2.440000e-06	5.500312e-07	4.446292e-09	3.953946e+00	2.888613e+02
2.450000e-06	3.989672e-07	4.160369e-09	2.868009e+00	2.700493e+02
2.460000e-06	2.477473e-07	3.864471e-09	1.780952e+00	2.506781e+02
2.470000e-06	9.636057e-08	3.559990e-09	6.926960e-01	2.307206e+02
2.480000e-06	-5.517433e-08	3.245052e-09	-3.966253e-01	2.101369e+02
2.490000e-06	-2.066850e-07	2.917481e-09	-1.485773e+00	1.888750e+02
2.500000e-06	-3.580531e-07	2.578377e-09	-2.573895e+00	1.668730e+02
2.510000e-06	-5.092655e-07	2.226018e-09	-3.660898e+00	1.440645e+02
2.520000e-06	-6.603363e-07	1.860158e-09	-4.746883e+00	1.203853e+02
2.530000e-06	-8.111907e-07	1.483679e-09	-5.831312e+00	9.578169e+01
2.540000e-06	-9.617710e-07	1.098553e-09	-6.913772e+00	7.021966e+01
2.550000e-06	-1.111923e-06	7.004766e-10	-7.993151e+00	4.369317e+01
2.560000e-06	-1.261585e-06	2.861512e-10	-9.069013e+00	1.623141e+01
2.570000e-06	-1.410859e-06	-1.441417e-10	-1.014208e+01	-1.209623e+01
2.580000e-06	-1.559724e-06	-5.893650e-10	-1.121221e+01	-4.117836e+01
2.590000e-06	-1.708090e-06	-1.046312e-09	-1.227875e+01	-7.086305e+01
2.600000e-06	-1.855855e-06	-1.511520e-09	-1.334097e+01	-1.009629e+02
2.610000e-06	-2.002895e-06	-1.979862e-09	-1.439798e+01	-1.312631e+02
2.620000e-06	-2.149143e-06	-2.446964e-09	-1.544929e+01	-1.615324e+02
2.630000e-06	-2.294626e-06	-2.908015e-09	-1.649512e+01	-1.915349e+02
2.640000e-06	-2.439302e-06	-3.358850e-09	-1.753513e+01	-2.210430e+02
2.650000e-06	-2.583008e-06	-3.797488e-09	-1.856817e+01	-2.498494e+02
2.660000e-06	-2.725561e-06	-4.222584e-09	-1.959292e+01	-2.777767e+02
2.670000e-06	-2.866916e-06	-4.631694e-09	-2.060907e+01	-3.046855e+02
2.680000e-06	-3.007156e-06	-5.024208e-09	-2.161719e+01	-3.304778e+02
2.690000e-06	-3.146260e-06	-5.402177e-09	-2.261715e+01	-3.550982e+02
2.700000e-06	-3.284220e-06	-5.763829e-09	-2.360889e+01	-3.785311e+02
2.710000e-06	-3.421013e-06	-6.106510e-09	-2.459224e+01	-4.007949e+02
2.720000e-06	-3.556537e-06	-6.430737e-09	-2.556647e+01	-4.219355e+02
2.730000e-06	-3.690679e-06	-6.738864e-09	-2.653076e+01	-4.420167e+02
2.740000e-06	-3.823452e-06	-7.032346e-09	-2.748520e+01	-4.611123e+02
2.750000e-06	-3.954918e-06	-7.312915e-09	-2.843026e+01	-4.792978e+02
2.760000e-06	-4.085022e-06	-7.579293e-09	-2.936553e+01	-4.966444e+02
2.770000e-06	-4.213780e-06	-7.833326e-09	-3.029111e+01	-5.132141e+02
2.780000e-06	-4.341053e-06	-8.077419e-09	-3.120602e+01	-5.290579e+02
2.790000e-06	-4.466757e-06	-8.310957e-09	-3.210966e+01	-5.442152e+02
2.800000e-06	-4.590972e-06	-8.536284e-09	-3.300258e+01	-5.587152e+02
2.810000e-06	-4.713588e-06	-8.751082e-09	-3.388402e+01	-5.725798e+02
2.820000e-06	-4.834484e-06	-8.955463e-09	-3.475309e+01	-5.858264e+02
2.830000e-06	-4.953540e-06	-9.148038e-09	-3.560894e+01	-5.984708e+02
2.840000e-06	-5.070668e-06	-9.329805e-09	-3.645093e+01	-6.105304e+02
2.850000e-06	-5.185766e-06	-9.503865e-09	-3.727831e+01	-6.220251e+02
2.860000e-06	-5.298646e-06	-9.669250e-09	-3.808976e+01	-6.329781e+02
2.870000e-06	-5.409448e-06	-9.828796e-09	-3.888627e+01	-6.434157e+02
2.880000e-06	-5.518362e-06	-9.982637e-09	-3.966921e+01	-6.533659e+02
2.890000e-06	-5.625369e-06	-1.012982e-08	-4.043844e+01	-6.628564e+02
2.900000e-06	-5.730413e-06	-1.027043e-08	-4.119355e+01	-6.719134e+02
2.910000e-06	-5.833318e-06	-1.040452e-08	-4.193330e+01	-6.805597e+02
2.920000e-06	-5.934034e-06	-1.053166e-08	-4.265730e+01	-6.888140e+02
2.930000e-06	-6.032651e-06	-1.065008e-08	-4.336622e+01	-6.966908e+02
2.940000e-06	-6.129199e-06	-1.076082e-08	-4.406026e+01	-7.042006e+02
