# Temperatura_=_67.38
# Concentracion g/m^3_=_15000.0
# C_Vs_to_Am_M_A/Vsm_=_65563218390.804596
# pendiente_HvsI_1/m_=_3716.3
# ordenada_HvsI_A/m_=_1297.0
# frecuencia_Hz_=_302429.80938963534

Tiempo_(s)	Campo_(V.s)	Magnetizacion_(V.s)	Campo_(kA/m)	Magnetizacion_(A/m)
0.000000e+00	-7.920726e-06	-1.391042e-08	-5.690342e+01	-9.107013e+02
1.000000e-08	-7.916961e-06	-1.390533e-08	-5.687637e+01	-9.102717e+02
2.000000e-08	-7.910649e-06	-1.389640e-08	-5.683102e+01	-9.096760e+02
3.000000e-08	-7.901684e-06	-1.388940e-08	-5.676662e+01	-9.089274e+02
4.000000e-08	-7.889869e-06	-1.387744e-08	-5.668174e+01	-9.080405e+02
5.000000e-08	-7.875111e-06	-1.385956e-08	-5.657571e+01	-9.070291e+02
6.000000e-08	-7.857552e-06	-1.383829e-08	-5.644956e+01	-9.059048e+02
7.000000e-08	-7.837692e-06	-1.380366e-08	-5.630689e+01	-9.046757e+02
8.000000e-08	-7.815517e-06	-1.380760e-08	-5.614758e+01	-9.033459e+02
9.000000e-08	-7.790324e-06	-1.385722e-08	-5.596659e+01	-9.019151e+02
1.000000e-07	-7.761863e-06	-1.380390e-08	-5.576213e+01	-9.003795e+02
1.100000e-07	-7.730516e-06	-1.373036e-08	-5.553693e+01	-8.987324e+02
1.200000e-07	-7.696434e-06	-1.370133e-08	-5.529208e+01	-8.969656e+02
1.300000e-07	-7.659742e-06	-1.367265e-08	-5.502848e+01	-8.950700e+02
1.400000e-07	-7.620803e-06	-1.360227e-08	-5.474873e+01	-8.930370e+02
1.500000e-07	-7.579761e-06	-1.354023e-08	-5.445388e+01	-8.908587e+02
1.600000e-07	-7.536286e-06	-1.361046e-08	-5.414155e+01	-8.885282e+02
1.700000e-07	-7.490109e-06	-1.347952e-08	-5.380981e+01	-8.860395e+02
1.800000e-07	-7.441145e-06	-1.343184e-08	-5.345805e+01	-8.833870e+02
1.900000e-07	-7.389229e-06	-1.348142e-08	-5.308508e+01	-8.805653e+02
2.000000e-07	-7.334450e-06	-1.335662e-08	-5.269154e+01	-8.775686e+02
2.100000e-07	-7.276941e-06	-1.333725e-08	-5.227839e+01	-8.743907e+02
2.200000e-07	-7.216780e-06	-1.327875e-08	-5.184619e+01	-8.710254e+02
2.300000e-07	-7.154099e-06	-1.323690e-08	-5.139588e+01	-8.674665e+02
2.400000e-07	-7.088695e-06	-1.317817e-08	-5.092601e+01	-8.637089e+02
2.500000e-07	-7.020539e-06	-1.309098e-08	-5.043637e+01	-8.597490e+02
2.600000e-07	-6.949785e-06	-1.305094e-08	-4.992806e+01	-8.555860e+02
2.700000e-07	-6.876299e-06	-1.296718e-08	-4.940013e+01	-8.512218e+02
2.800000e-07	-6.800068e-06	-1.288467e-08	-4.885248e+01	-8.466612e+02
2.900000e-07	-6.721082e-06	-1.280258e-08	-4.828504e+01	-8.419115e+02
3.000000e-07	-6.639454e-06	-1.277097e-08	-4.769861e+01	-8.369819e+02
3.100000e-07	-6.555556e-06	-1.270563e-08	-4.709587e+01	-8.318813e+02
3.200000e-07	-6.469423e-06	-1.258546e-08	-4.647709e+01	-8.266178e+02
3.300000e-07	-6.380938e-06	-1.252686e-08	-4.584140e+01	-8.211964e+02
3.400000e-07	-6.290151e-06	-1.244503e-08	-4.518917e+01	-8.156183e+02
3.500000e-07	-6.197129e-06	-1.234566e-08	-4.452089e+01	-8.098797e+02
3.600000e-07	-6.101853e-06	-1.224595e-08	-4.383642e+01	-8.039721e+02
3.700000e-07	-6.004264e-06	-1.216500e-08	-4.313533e+01	-7.978830e+02
3.800000e-07	-5.904480e-06	-1.206955e-08	-4.241847e+01	-7.915970e+02
3.900000e-07	-5.802616e-06	-1.194768e-08	-4.168667e+01	-7.850974e+02
4.000000e-07	-5.698708e-06	-1.185354e-08	-4.094018e+01	-7.783690e+02
4.100000e-07	-5.592789e-06	-1.175560e-08	-4.017925e+01	-7.713991e+02
4.200000e-07	-5.484868e-06	-1.164804e-08	-3.940393e+01	-7.641797e+02
4.300000e-07	-5.375049e-06	-1.151885e-08	-3.861498e+01	-7.567081e+02
4.400000e-07	-5.263395e-06	-1.141052e-08	-3.781284e+01	-7.489865e+02
4.500000e-07	-5.149673e-06	-1.130108e-08	-3.699585e+01	-7.410217e+02
4.600000e-07	-5.033833e-06	-1.116923e-08	-3.616364e+01	-7.328231e+02
4.700000e-07	-4.916153e-06	-1.103600e-08	-3.531822e+01	-7.244002e+02
4.800000e-07	-4.796734e-06	-1.090880e-08	-3.446029e+01	-7.157606e+02
4.900000e-07	-4.675475e-06	-1.077992e-08	-3.358915e+01	-7.069077e+02
5.000000e-07	-4.552451e-06	-1.063617e-08	-3.270534e+01	-6.978388e+02
5.100000e-07	-4.427868e-06	-1.049335e-08	-3.181032e+01	-6.885446e+02
5.200000e-07	-4.301701e-06	-1.034306e-08	-3.090392e+01	-6.790092e+02
5.300000e-07	-4.174006e-06	-1.018511e-08	-2.998655e+01	-6.692120e+02
5.400000e-07	-4.044837e-06	-1.002208e-08	-2.905858e+01	-6.591290e+02
5.500000e-07	-3.914079e-06	-9.864765e-09	-2.811920e+01	-6.487363e+02
5.600000e-07	-3.781805e-06	-9.706445e-09	-2.716892e+01	-6.380125e+02
5.700000e-07	-3.648071e-06	-9.537711e-09	-2.620817e+01	-6.269413e+02
5.800000e-07	-3.512958e-06	-9.365711e-09	-2.523750e+01	-6.155133e+02
5.900000e-07	-3.376592e-06	-9.188865e-09	-2.425783e+01	-6.037261e+02
6.000000e-07	-3.238924e-06	-9.008381e-09	-2.326881e+01	-5.915843e+02
6.100000e-07	-3.099819e-06	-8.815854e-09	-2.226946e+01	-5.790971e+02
6.200000e-07	-2.959351e-06	-8.614901e-09	-2.126032e+01	-5.662757e+02
6.300000e-07	-2.817715e-06	-8.408635e-09	-2.024279e+01	-5.531296e+02
6.400000e-07	-2.674969e-06	-8.199393e-09	-1.921729e+01	-5.396635e+02
6.500000e-07	-2.531195e-06	-7.987695e-09	-1.818440e+01	-5.258747e+02
6.600000e-07	-2.386463e-06	-7.769907e-09	-1.714463e+01	-5.117506e+02
6.700000e-07	-2.240881e-06	-7.548590e-09	-1.609875e+01	-4.972690e+02
6.800000e-07	-2.094540e-06	-7.320798e-09	-1.504742e+01	-4.823990e+02
6.900000e-07	-1.947530e-06	-7.090390e-09	-1.399128e+01	-4.671038e+02
7.000000e-07	-1.799888e-06	-6.851168e-09	-1.293061e+01	-4.513439e+02
7.100000e-07	-1.651739e-06	-6.601532e-09	-1.186628e+01	-4.350816e+02
7.200000e-07	-1.503143e-06	-6.344350e-09	-1.079875e+01	-4.182848e+02
7.300000e-07	-1.354073e-06	-6.079955e-09	-9.727820e+00	-4.009298e+02
7.400000e-07	-1.204584e-06	-5.805603e-09	-8.653869e+00	-3.830029e+02
7.500000e-07	-1.054714e-06	-5.521588e-09	-7.577188e+00	-3.644996e+02
7.600000e-07	-9.044925e-07	-5.232834e-09	-6.497979e+00	-3.454226e+02
7.700000e-07	-7.539215e-07	-4.935657e-09	-5.416259e+00	-3.257769e+02
7.800000e-07	-6.030868e-07	-4.629760e-09	-4.332646e+00	-3.055644e+02
7.900000e-07	-4.520819e-07	-4.314109e-09	-3.247809e+00	-2.847780e+02
8.000000e-07	-3.009242e-07	-3.989435e-09	-2.161874e+00	-2.633956e+02
8.100000e-07	-1.496503e-07	-3.649922e-09	-1.075105e+00	-2.413765e+02
8.200000e-07	1.715582e-09	-3.297984e-09	1.232494e-02	-2.186596e+02
8.300000e-07	1.531429e-07	-2.937333e-09	1.100197e+00	-1.951653e+02
8.400000e-07	3.045910e-07	-2.563504e-09	2.188217e+00	-1.708000e+02
8.500000e-07	4.559585e-07	-2.173421e-09	3.275659e+00	-1.454649e+02
8.600000e-07	6.071543e-07	-1.767862e-09	4.361867e+00	-1.190663e+02
8.700000e-07	7.581538e-07	-1.351674e-09	5.446665e+00	-9.152850e+01
8.800000e-07	9.089205e-07	-9.196728e-10	6.529791e+00	-6.280622e+01
8.900000e-07	1.059388e-06	-4.697475e-10	7.610769e+00	-3.289639e+01
9.000000e-07	1.209498e-06	-1.551901e-12	8.689171e+00	-1.847053e+00
9.100000e-07	1.359196e-06	4.831255e-10	9.764621e+00	3.023747e+01
9.200000e-07	1.508433e-06	9.841778e-10	1.083676e+01	6.319611e+01
9.300000e-07	1.657202e-06	1.498691e-09	1.190553e+01	9.681553e+01
9.400000e-07	1.805374e-06	2.020786e-09	1.297002e+01	1.308395e+02
9.500000e-07	1.952881e-06	2.545398e-09	1.402972e+01	1.649820e+02
9.600000e-07	2.099743e-06	3.064109e-09	1.508480e+01	1.989440e+02
9.700000e-07	2.245871e-06	3.575047e-09	1.613460e+01	2.324303e+02
9.800000e-07	2.391118e-06	4.072111e-09	1.717807e+01	2.651670e+02
9.900000e-07	2.535360e-06	4.553237e-09	1.821432e+01	2.969163e+02
1.000000e-06	2.678589e-06	5.013503e-09	1.924329e+01	3.274884e+02
1.010000e-06	2.820810e-06	5.453298e-09	2.026503e+01	3.567483e+02
1.020000e-06	2.961953e-06	5.874307e-09	2.127902e+01	3.846186e+02
1.030000e-06	3.101885e-06	6.274961e-09	2.228430e+01	4.110764e+02
1.040000e-06	3.240518e-06	6.654475e-09	2.328025e+01	4.361467e+02
1.050000e-06	3.377861e-06	7.015885e-09	2.426695e+01	4.598925e+02
1.060000e-06	3.513936e-06	7.361887e-09	2.524452e+01	4.824026e+02
1.070000e-06	3.648733e-06	7.690986e-09	2.621292e+01	5.037794e+02
1.080000e-06	3.782214e-06	8.003617e-09	2.717187e+01	5.241271e+02
1.090000e-06	3.914367e-06	8.299095e-09	2.812127e+01	5.435425e+02
1.100000e-06	4.044991e-06	8.580271e-09	2.905969e+01	5.621085e+02
1.110000e-06	4.174126e-06	8.849596e-09	2.998741e+01	5.798901e+02
1.120000e-06	4.301895e-06	9.108158e-09	3.090531e+01	5.969347e+02
1.130000e-06	4.428204e-06	9.355057e-09	3.181273e+01	6.132737e+02
1.140000e-06	4.553115e-06	9.591165e-09	3.271011e+01	6.289277e+02
1.150000e-06	4.676403e-06	9.817010e-09	3.359582e+01	6.439103e+02
1.160000e-06	4.797946e-06	1.003123e-08	3.446900e+01	6.582346e+02
1.170000e-06	4.917823e-06	1.023524e-08	3.533021e+01	6.719160e+02
1.180000e-06	5.035956e-06	1.043112e-08	3.617889e+01	6.849763e+02
1.190000e-06	5.152240e-06	1.061923e-08	3.701429e+01	6.974437e+02
1.200000e-06	5.266486e-06	1.080008e-08	3.783505e+01	7.093524e+02
1.210000e-06	5.378642e-06	1.097433e-08	3.864079e+01	7.207403e+02
1.220000e-06	5.488847e-06	1.114404e-08	3.943251e+01	7.316461e+02
1.230000e-06	5.597225e-06	1.130693e-08	4.021112e+01	7.421052e+02
1.240000e-06	5.703563e-06	1.146204e-08	4.097506e+01	7.521473e+02
1.250000e-06	5.807677e-06	1.160901e-08	4.172303e+01	7.617938e+02
1.260000e-06	5.909700e-06	1.174971e-08	4.245597e+01	7.710573e+02
1.270000e-06	6.009606e-06	1.188482e-08	4.317371e+01	7.799422e+02
1.280000e-06	6.107193e-06	1.201406e-08	4.387479e+01	7.884464e+02
1.290000e-06	6.202454e-06	1.213773e-08	4.455915e+01	7.965649e+02
1.300000e-06	6.295545e-06	1.225536e-08	4.522793e+01	8.042926e+02
1.310000e-06	6.386420e-06	1.236719e-08	4.588078e+01	8.116281e+02
1.320000e-06	6.474997e-06	1.247428e-08	4.651713e+01	8.185765e+02
1.330000e-06	6.561264e-06	1.257446e-08	4.713688e+01	8.251504e+02
1.340000e-06	6.645301e-06	1.266725e-08	4.774061e+01	8.313710e+02
1.350000e-06	6.726966e-06	1.275489e-08	4.832731e+01	8.372662e+02
1.360000e-06	6.806073e-06	1.283830e-08	4.889562e+01	8.428686e+02
1.370000e-06	6.882688e-06	1.291930e-08	4.944603e+01	8.482121e+02
1.380000e-06	6.956678e-06	1.299768e-08	4.997758e+01	8.533282e+02
1.390000e-06	7.028068e-06	1.307451e-08	5.049046e+01	8.582427e+02
1.400000e-06	7.097049e-06	1.314888e-08	5.098602e+01	8.629730e+02
1.410000e-06	7.163452e-06	1.321877e-08	5.146307e+01	8.675268e+02
1.420000e-06	7.227213e-06	1.328479e-08	5.192114e+01	8.719016e+02
1.430000e-06	7.288574e-06	1.334801e-08	5.236196e+01	8.760859e+02
1.440000e-06	7.347490e-06	1.340662e-08	5.278522e+01	8.800623e+02
1.450000e-06	7.403782e-06	1.345889e-08	5.318963e+01	8.838098e+02
1.460000e-06	7.457381e-06	1.350766e-08	5.357469e+01	8.873082e+02
1.470000e-06	7.507924e-06	1.355550e-08	5.393780e+01	8.905409e+02
1.480000e-06	7.555399e-06	1.360183e-08	5.427887e+01	8.934982e+02
1.490000e-06	7.600254e-06	1.364328e-08	5.460110e+01	8.961784e+02
1.500000e-06	7.642402e-06	1.367938e-08	5.490391e+01	8.985888e+02
1.510000e-06	7.681734e-06	1.371324e-08	5.518647e+01	9.007444e+02
1.520000e-06	7.718481e-06	1.374555e-08	5.545046e+01	9.026662e+02
1.530000e-06	7.752548e-06	1.377367e-08	5.569520e+01	9.043785e+02
1.540000e-06	7.783752e-06	1.379599e-08	5.591937e+01	9.059060e+02
1.550000e-06	7.812336e-06	1.381493e-08	5.612473e+01	9.072703e+02
1.560000e-06	7.838106e-06	1.383193e-08	5.630987e+01	9.084884e+02
1.570000e-06	7.860906e-06	1.384720e-08	5.647366e+01	9.095704e+02
1.580000e-06	7.881070e-06	1.386215e-08	5.661852e+01	9.105194e+02
1.590000e-06	7.898427e-06	1.387681e-08	5.674322e+01	9.113323e+02
1.600000e-06	7.912751e-06	1.388969e-08	5.684612e+01	9.120007e+02
1.610000e-06	7.923941e-06	1.389832e-08	5.692651e+01	9.125137e+02
1.620000e-06	7.932044e-06	1.390343e-08	5.698473e+01	9.128598e+02
1.630000e-06	7.937376e-06	1.390702e-08	5.702303e+01	9.130294e+02
1.640000e-06	7.939947e-06	1.390918e-08	5.704150e+01	9.130169e+02
1.650000e-06	7.939642e-06	1.390897e-08	5.703931e+01	9.128212e+02
1.660000e-06	7.936717e-06	1.389738e-08	5.701830e+01	9.124467e+02
1.670000e-06	7.931194e-06	1.389001e-08	5.697862e+01	9.119024e+02
1.680000e-06	7.922975e-06	1.388263e-08	5.691957e+01	9.112008e+02
1.690000e-06	7.912180e-06	1.387191e-08	5.684202e+01	9.103562e+02
1.700000e-06	7.898513e-06	1.386325e-08	5.674384e+01	9.093827e+02
1.710000e-06	7.882120e-06	1.385719e-08	5.662607e+01	9.082931e+02
1.720000e-06	7.863470e-06	1.385894e-08	5.649208e+01	9.070964e+02
1.730000e-06	7.842499e-06	1.377151e-08	5.634142e+01	9.057982e+02
1.740000e-06	7.818655e-06	1.369884e-08	5.617012e+01	9.043995e+02
1.750000e-06	7.791282e-06	1.373054e-08	5.597348e+01	9.028976e+02
1.760000e-06	7.760353e-06	1.371809e-08	5.575128e+01	9.012865e+02
1.770000e-06	7.726589e-06	1.367062e-08	5.550871e+01	8.995585e+02
1.780000e-06	7.690557e-06	1.369663e-08	5.524986e+01	8.977047e+02
1.790000e-06	7.652215e-06	1.372753e-08	5.497440e+01	8.957162e+02
1.800000e-06	7.611837e-06	1.355222e-08	5.468432e+01	8.935848e+02
1.810000e-06	7.569252e-06	1.361376e-08	5.437839e+01	8.913033e+02
1.820000e-06	7.524038e-06	1.360906e-08	5.405356e+01	8.888654e+02
1.830000e-06	7.476216e-06	1.348417e-08	5.371000e+01	8.862655e+02
1.840000e-06	7.425473e-06	1.355729e-08	5.334546e+01	8.834982e+02
1.850000e-06	7.371715e-06	1.339227e-08	5.295925e+01	8.805577e+02
1.860000e-06	7.315149e-06	1.341038e-08	5.255288e+01	8.774382e+02
1.870000e-06	7.256000e-06	1.333976e-08	5.212795e+01	8.741332e+02
1.880000e-06	7.194303e-06	1.322085e-08	5.168471e+01	8.706366e+02
1.890000e-06	7.129766e-06	1.327674e-08	5.122106e+01	8.669426e+02
1.900000e-06	7.062556e-06	1.312789e-08	5.073822e+01	8.630474e+02
1.910000e-06	6.992587e-06	1.310939e-08	5.023556e+01	8.589490e+02
1.920000e-06	6.919772e-06	1.304495e-08	4.971244e+01	8.546484e+02
1.930000e-06	6.844360e-06	1.299314e-08	4.917068e+01	8.501496e+02
1.940000e-06	6.766169e-06	1.291594e-08	4.860894e+01	8.454592e+02
1.950000e-06	6.685380e-06	1.277694e-08	4.802854e+01	8.405858e+02
1.960000e-06	6.602226e-06	1.277818e-08	4.743116e+01	8.355386e+02
1.970000e-06	6.516611e-06	1.264479e-08	4.681609e+01	8.303261e+02
1.980000e-06	6.428500e-06	1.258179e-08	4.618309e+01	8.249545e+02
1.990000e-06	6.338099e-06	1.251239e-08	4.553364e+01	8.194263e+02
2.000000e-06	6.245597e-06	1.243744e-08	4.486909e+01	8.137394e+02
2.010000e-06	6.150839e-06	1.233250e-08	4.418834e+01	8.078867e+02
2.020000e-06	6.053815e-06	1.221354e-08	4.349131e+01	8.018569e+02
2.030000e-06	5.954670e-06	1.215512e-08	4.277904e+01	7.956353e+02
2.040000e-06	5.853457e-06	1.204579e-08	4.205191e+01	7.892056e+02
2.050000e-06	5.750119e-06	1.195013e-08	4.130953e+01	7.825516e+02
2.060000e-06	5.644783e-06	1.182638e-08	4.055277e+01	7.756598e+02
2.070000e-06	5.537581e-06	1.173591e-08	3.978262e+01	7.685206e+02
2.080000e-06	5.428486e-06	1.160555e-08	3.899887e+01	7.611294e+02
2.090000e-06	5.317391e-06	1.148318e-08	3.820075e+01	7.534870e+02
2.100000e-06	5.204210e-06	1.137719e-08	3.738765e+01	7.455988e+02
2.110000e-06	5.089087e-06	1.126217e-08	3.656059e+01	7.374737e+02
2.120000e-06	4.971957e-06	1.113197e-08	3.571911e+01	7.291213e+02
2.130000e-06	4.852843e-06	1.099389e-08	3.486339e+01	7.205501e+02
2.140000e-06	4.731919e-06	1.087370e-08	3.399465e+01	7.117652e+02
2.150000e-06	4.609301e-06	1.073354e-08	3.311376e+01	7.027657e+02
2.160000e-06	4.485089e-06	1.059119e-08	3.222140e+01	6.935447e+02
2.170000e-06	4.359238e-06	1.044062e-08	3.131727e+01	6.840883e+02
2.180000e-06	4.231689e-06	1.030103e-08	3.040095e+01	6.743772e+02
2.190000e-06	4.102559e-06	1.014590e-08	2.947326e+01	6.643881e+02
2.200000e-06	3.971968e-06	9.989894e-09	2.853508e+01	6.540968e+02
2.210000e-06	3.839969e-06	9.826255e-09	2.758679e+01	6.434809e+02
2.220000e-06	3.706555e-06	9.657759e-09	2.662832e+01	6.325221e+02
2.230000e-06	3.571626e-06	9.481293e-09	2.565897e+01	6.212088e+02
2.240000e-06	3.435304e-06	9.304093e-09	2.467962e+01	6.095362e+02
2.250000e-06	3.297758e-06	9.129280e-09	2.369147e+01	5.975070e+02
2.260000e-06	3.158997e-06	8.946701e-09	2.269460e+01	5.851290e+02
2.270000e-06	3.019014e-06	8.757307e-09	2.168895e+01	5.724132e+02
2.280000e-06	2.877804e-06	8.555511e-09	2.067448e+01	5.593700e+02
2.290000e-06	2.735451e-06	8.351679e-09	1.965180e+01	5.460061e+02
2.300000e-06	2.592081e-06	8.142152e-09	1.862181e+01	5.323212e+02
2.310000e-06	2.447791e-06	7.931713e-09	1.758522e+01	5.183062e+02
2.320000e-06	2.302688e-06	7.713209e-09	1.654278e+01	5.039419e+02
2.330000e-06	2.156784e-06	7.485690e-09	1.549459e+01	4.891999e+02
2.340000e-06	2.010144e-06	7.252253e-09	1.444111e+01	4.740451e+02
2.350000e-06	1.862872e-06	7.012617e-09	1.338309e+01	4.584382e+02
2.360000e-06	1.715068e-06	6.767245e-09	1.232125e+01	4.423406e+02
2.370000e-06	1.566758e-06	6.512809e-09	1.125577e+01	4.257181e+02
2.380000e-06	1.417946e-06	6.251502e-09	1.018669e+01	4.085439e+02
2.390000e-06	1.268645e-06	5.983994e-09	9.114096e+00	3.908010e+02
2.400000e-06	1.118886e-06	5.707055e-09	8.038204e+00	3.724823e+02
2.410000e-06	9.687948e-07	5.421570e-09	6.959934e+00	3.535886e+02
2.420000e-06	8.184052e-07	5.125211e-09	5.879518e+00	3.341246e+02
2.430000e-06	6.677020e-07	4.819606e-09	4.796849e+00	3.140939e+02
2.440000e-06	5.167456e-07	4.506136e-09	3.712361e+00	2.934929e+02
2.450000e-06	3.655685e-07	4.186134e-09	2.626287e+00	2.723049e+02
2.460000e-06	2.141739e-07	3.856968e-09	1.538650e+00	2.504955e+02
2.470000e-06	6.258794e-08	3.511187e-09	4.496390e-01	2.280102e+02
2.480000e-06	-8.908973e-08	3.149185e-09	-6.400310e-01	2.047748e+02
2.490000e-06	-2.407028e-07	2.775282e-09	-1.729237e+00	1.806996e+02
2.500000e-06	-3.921688e-07	2.389850e-09	-2.817386e+00	1.556863e+02
2.510000e-06	-5.435019e-07	1.991712e-09	-3.904581e+00	1.296383e+02
2.520000e-06	-6.946505e-07	1.579407e-09	-4.990450e+00	1.024727e+02
2.530000e-06	-8.455578e-07	1.149849e-09	-6.074585e+00	7.413312e+01
2.540000e-06	-9.961370e-07	7.037252e-10	-7.156364e+00	4.460175e+01
2.550000e-06	-1.146309e-06	2.428586e-10	-8.235215e+00	1.390945e+01
2.560000e-06	-1.296076e-06	-2.337957e-10	-9.311160e+00	-1.785784e+01
2.570000e-06	-1.445415e-06	-7.301794e-10	-1.038403e+01	-5.055704e+01
2.580000e-06	-1.594243e-06	-1.246160e-09	-1.145323e+01	-8.399080e+01
2.590000e-06	-1.742493e-06	-1.773517e-09	-1.251827e+01	-1.179154e+02
2.600000e-06	-1.890123e-06	-2.304969e-09	-1.357886e+01	-1.520528e+02
2.610000e-06	-2.037035e-06	-2.834849e-09	-1.463429e+01	-1.861062e+02
2.620000e-06	-2.183187e-06	-3.355579e-09	-1.568427e+01	-2.197772e+02
2.630000e-06	-2.328591e-06	-3.860691e-09	-1.672887e+01	-2.527834e+02
2.640000e-06	-2.473208e-06	-4.347167e-09	-1.776781e+01	-2.848739e+02
2.650000e-06	-2.616847e-06	-4.814584e-09	-1.879973e+01	-3.158424e+02
2.660000e-06	-2.759370e-06	-5.262939e-09	-1.982364e+01	-3.455359e+02
2.670000e-06	-2.900753e-06	-5.691779e-09	-2.083934e+01	-3.738585e+02
2.680000e-06	-3.040957e-06	-6.101308e-09	-2.184659e+01	-4.007703e+02
2.690000e-06	-3.179912e-06	-6.494893e-09	-2.284486e+01	-4.262820e+02
2.700000e-06	-3.317630e-06	-6.870552e-09	-2.383424e+01	-4.504455e+02
2.710000e-06	-3.454165e-06	-7.223480e-09	-2.481513e+01	-4.733426e+02
2.720000e-06	-3.589376e-06	-7.554813e-09	-2.578649e+01	-4.950728e+02
2.730000e-06	-3.723196e-06	-7.869969e-09	-2.674787e+01	-5.157408e+02
2.740000e-06	-3.855731e-06	-8.173099e-09	-2.770002e+01	-5.354467e+02
2.750000e-06	-3.986967e-06	-8.465373e-09	-2.864283e+01	-5.542784e+02
2.760000e-06	-4.116812e-06	-8.743298e-09	-2.957565e+01	-5.723067e+02
2.770000e-06	-4.245296e-06	-9.006082e-09	-3.049870e+01	-5.895847e+02
2.780000e-06	-4.372268e-06	-9.258439e-09	-3.141088e+01	-6.061485e+02
2.790000e-06	-4.497689e-06	-9.501850e-09	-3.231192e+01	-6.220215e+02
2.800000e-06	-4.621671e-06	-9.736545e-09	-3.320262e+01	-6.372192e+02
2.810000e-06	-4.744027e-06	-9.961069e-09	-3.408164e+01	-6.517542e+02
2.820000e-06	-4.864614e-06	-1.017461e-08	-3.494795e+01	-6.656408e+02
2.830000e-06	-4.983337e-06	-1.037732e-08	-3.580087e+01	-6.788987e+02
2.840000e-06	-5.100051e-06	-1.057111e-08	-3.663936e+01	-6.915537e+02
2.850000e-06	-5.214733e-06	-1.075755e-08	-3.746325e+01	-7.036386e+02
2.860000e-06	-5.327296e-06	-1.093563e-08	-3.827192e+01	-7.151903e+02
2.870000e-06	-5.437744e-06	-1.110425e-08	-3.906539e+01	-7.262476e+02
2.880000e-06	-5.546258e-06	-1.126552e-08	-3.984496e+01	-7.368474e+02
2.890000e-06	-5.652923e-06	-1.142185e-08	-4.061125e+01	-7.470213e+02
2.900000e-06	-5.757673e-06	-1.157224e-08	-4.136379e+01	-7.567938e+02
2.910000e-06	-5.860195e-06	-1.171592e-08	-4.210032e+01	-7.661802e+02
2.920000e-06	-5.960439e-06	-1.185398e-08	-4.282048e+01	-7.751874e+02
2.930000e-06	-6.058619e-06	-1.198400e-08	-4.352582e+01	-7.838150e+02
2.940000e-06	-6.154714e-06	-1.210598e-08	-4.421618e+01	-7.920588e+02
