# Temperatura_=_62.01
# Concentracion g/m^3_=_15000.0
# C_Vs_to_Am_M_A/Vsm_=_65563218390.804596
# pendiente_HvsI_1/m_=_3716.3
# ordenada_HvsI_A/m_=_1297.0
# frecuencia_Hz_=_302435.3851307211

Tiempo_(s)	Campo_(V.s)	Magnetizacion_(V.s)	Campo_(kA/m)	Magnetizacion_(A/m)
0.000000e+00	-7.948067e-06	-1.368334e-08	-5.690161e+01	-8.953646e+02
1.000000e-08	-7.944895e-06	-1.367892e-08	-5.687890e+01	-8.949814e+02
2.000000e-08	-7.939039e-06	-1.367192e-08	-5.683697e+01	-8.944396e+02
3.000000e-08	-7.930608e-06	-1.366410e-08	-5.677661e+01	-8.937495e+02
4.000000e-08	-7.919446e-06	-1.365510e-08	-5.669670e+01	-8.929224e+02
5.000000e-08	-7.905295e-06	-1.364454e-08	-5.659539e+01	-8.919696e+02
6.000000e-08	-7.888235e-06	-1.362818e-08	-5.647326e+01	-8.909010e+02
7.000000e-08	-7.868856e-06	-1.360555e-08	-5.633452e+01	-8.897240e+02
8.000000e-08	-7.847226e-06	-1.358651e-08	-5.617966e+01	-8.884438e+02
9.000000e-08	-7.822713e-06	-1.359463e-08	-5.600417e+01	-8.870623e+02
1.000000e-07	-7.794933e-06	-1.358519e-08	-5.580529e+01	-8.855795e+02
1.100000e-07	-7.764184e-06	-1.353601e-08	-5.558515e+01	-8.839930e+02
1.200000e-07	-7.730705e-06	-1.349425e-08	-5.534547e+01	-8.822995e+02
1.300000e-07	-7.694550e-06	-1.346483e-08	-5.508663e+01	-8.804947e+02
1.400000e-07	-7.656038e-06	-1.342674e-08	-5.481091e+01	-8.785739e+02
1.500000e-07	-7.615392e-06	-1.336390e-08	-5.451993e+01	-8.765320e+02
1.600000e-07	-7.572393e-06	-1.332724e-08	-5.421209e+01	-8.743631e+02
1.700000e-07	-7.526701e-06	-1.330263e-08	-5.388497e+01	-8.720605e+02
1.800000e-07	-7.478248e-06	-1.321899e-08	-5.353809e+01	-8.696161e+02
1.900000e-07	-7.426782e-06	-1.321847e-08	-5.316964e+01	-8.670204e+02
2.000000e-07	-7.372359e-06	-1.321291e-08	-5.278001e+01	-8.642622e+02
2.100000e-07	-7.315273e-06	-1.315197e-08	-5.237132e+01	-8.613293e+02
2.200000e-07	-7.255519e-06	-1.311875e-08	-5.194354e+01	-8.582090e+02
2.300000e-07	-7.193221e-06	-1.304281e-08	-5.149753e+01	-8.548896e+02
2.400000e-07	-7.128248e-06	-1.297326e-08	-5.103238e+01	-8.513610e+02
2.500000e-07	-7.060538e-06	-1.290739e-08	-5.054763e+01	-8.476167e+02
2.600000e-07	-6.990205e-06	-1.286261e-08	-5.004410e+01	-8.436542e+02
2.700000e-07	-6.917095e-06	-1.279480e-08	-4.952069e+01	-8.394754e+02
2.800000e-07	-6.841225e-06	-1.270626e-08	-4.897753e+01	-8.350874e+02
2.900000e-07	-6.762605e-06	-1.263646e-08	-4.841468e+01	-8.305006e+02
3.000000e-07	-6.681293e-06	-1.256676e-08	-4.783255e+01	-8.257283e+02
3.100000e-07	-6.597631e-06	-1.251200e-08	-4.723359e+01	-8.207843e+02
3.200000e-07	-6.511758e-06	-1.244467e-08	-4.661882e+01	-8.156810e+02
3.300000e-07	-6.423568e-06	-1.236596e-08	-4.598745e+01	-8.104273e+02
3.400000e-07	-6.332980e-06	-1.228726e-08	-4.533891e+01	-8.050274e+02
3.500000e-07	-6.240129e-06	-1.220221e-08	-4.467418e+01	-7.994791e+02
3.600000e-07	-6.145072e-06	-1.211271e-08	-4.399364e+01	-7.937744e+02
3.700000e-07	-6.047711e-06	-1.201629e-08	-4.329662e+01	-7.878997e+02
3.800000e-07	-5.948131e-06	-1.191825e-08	-4.258371e+01	-7.818378e+02
3.900000e-07	-5.846450e-06	-1.181768e-08	-4.185576e+01	-7.755697e+02
4.000000e-07	-5.742737e-06	-1.172052e-08	-4.111326e+01	-7.690773e+02
4.100000e-07	-5.636985e-06	-1.161997e-08	-4.035616e+01	-7.623454e+02
4.200000e-07	-5.529187e-06	-1.151156e-08	-3.958442e+01	-7.553641e+02
4.300000e-07	-5.419479e-06	-1.139620e-08	-3.879900e+01	-7.481296e+02
4.400000e-07	-5.307853e-06	-1.127723e-08	-3.799985e+01	-7.406441e+02
4.500000e-07	-5.194202e-06	-1.116088e-08	-3.718620e+01	-7.329153e+02
4.600000e-07	-5.078472e-06	-1.104858e-08	-3.635767e+01	-7.249543e+02
4.700000e-07	-4.960789e-06	-1.093212e-08	-3.551516e+01	-7.167732e+02
4.800000e-07	-4.841310e-06	-1.080454e-08	-3.465979e+01	-7.083823e+02
4.900000e-07	-4.720109e-06	-1.067120e-08	-3.379209e+01	-6.997873e+02
5.000000e-07	-4.597162e-06	-1.053315e-08	-3.291189e+01	-6.909875e+02
5.100000e-07	-4.472544e-06	-1.039127e-08	-3.201973e+01	-6.819747e+02
5.200000e-07	-4.346381e-06	-1.024713e-08	-3.111651e+01	-6.727334e+02
5.300000e-07	-4.218644e-06	-1.009848e-08	-3.020201e+01	-6.632416e+02
5.400000e-07	-4.089344e-06	-9.940991e-09	-2.927633e+01	-6.534734e+02
5.500000e-07	-3.958467e-06	-9.781836e-09	-2.833936e+01	-6.434022e+02
5.600000e-07	-3.826075e-06	-9.624480e-09	-2.739154e+01	-6.330032e+02
5.700000e-07	-3.692241e-06	-9.465820e-09	-2.643340e+01	-6.222568e+02
5.800000e-07	-3.556981e-06	-9.299756e-09	-2.546505e+01	-6.111504e+02
5.900000e-07	-3.420414e-06	-9.129190e-09	-2.448735e+01	-5.996798e+02
6.000000e-07	-3.282543e-06	-8.954337e-09	-2.350030e+01	-5.878481e+02
6.100000e-07	-3.143253e-06	-8.766751e-09	-2.250310e+01	-5.756645e+02
6.200000e-07	-3.002561e-06	-8.567128e-09	-2.149586e+01	-5.631412e+02
6.300000e-07	-2.860627e-06	-8.362220e-09	-2.047973e+01	-5.502902e+02
6.400000e-07	-2.717565e-06	-8.155072e-09	-1.945552e+01	-5.371190e+02
6.500000e-07	-2.573485e-06	-7.943932e-09	-1.842403e+01	-5.236279e+02
6.600000e-07	-2.428461e-06	-7.731889e-09	-1.738578e+01	-5.098079e+02
6.700000e-07	-2.282533e-06	-7.520025e-09	-1.634106e+01	-4.956392e+02
6.800000e-07	-2.135878e-06	-7.300360e-09	-1.529112e+01	-4.810929e+02
6.900000e-07	-1.988521e-06	-7.071980e-09	-1.423617e+01	-4.661328e+02
7.000000e-07	-1.840500e-06	-6.835957e-09	-1.317646e+01	-4.507191e+02
7.100000e-07	-1.691960e-06	-6.593305e-09	-1.211304e+01	-4.348127e+02
7.200000e-07	-1.542967e-06	-6.343275e-09	-1.104637e+01	-4.183794e+02
7.300000e-07	-1.393516e-06	-6.084495e-09	-9.976426e+00	-4.013931e+02
7.400000e-07	-1.243584e-06	-5.815498e-09	-8.903034e+00	-3.838380e+02
7.500000e-07	-1.093227e-06	-5.536017e-09	-7.826606e+00	-3.657084e+02
7.600000e-07	-9.424999e-07	-5.251129e-09	-6.747522e+00	-3.470067e+02
7.700000e-07	-7.914496e-07	-4.961308e-09	-5.666126e+00	-3.277397e+02
7.800000e-07	-6.401350e-07	-4.662845e-09	-4.582839e+00	-3.079127e+02
7.900000e-07	-4.886084e-07	-4.354631e-09	-3.498033e+00	-2.875233e+02
8.000000e-07	-3.369449e-07	-4.035952e-09	-2.412248e+00	-2.665561e+02
8.100000e-07	-1.851692e-07	-3.704483e-09	-1.325659e+00	-2.449774e+02
8.200000e-07	-3.326387e-08	-3.360419e-09	-2.381419e-01	-2.227332e+02
8.300000e-07	1.187372e-07	-3.005253e-09	8.500602e-01	-1.997502e+02
8.400000e-07	2.707418e-07	-2.639082e-09	1.938288e+00	-1.759392e+02
8.500000e-07	4.226458e-07	-2.258961e-09	3.025795e+00	-1.512031e+02
8.600000e-07	5.744400e-07	-1.864759e-09	4.112517e+00	-1.254468e+02
8.700000e-07	7.260982e-07	-1.458099e-09	5.198265e+00	-9.858945e+01
8.800000e-07	8.774900e-07	-1.037022e-09	6.282104e+00	-7.057693e+01
8.900000e-07	1.028625e-06	-5.970510e-10	7.364104e+00	-4.139397e+01
9.000000e-07	1.179454e-06	-1.392853e-10	8.443919e+00	-1.107370e+01
9.100000e-07	1.329855e-06	3.346423e-10	9.520663e+00	2.029627e+01
9.200000e-07	1.479763e-06	8.247378e-10	1.059388e+01	5.257216e+01
9.300000e-07	1.629107e-06	1.326993e-09	1.166306e+01	8.555726e+01
9.400000e-07	1.777857e-06	1.837581e-09	1.272799e+01	1.190100e+02
9.500000e-07	1.925989e-06	2.353613e-09	1.378850e+01	1.526562e+02
9.600000e-07	2.073396e-06	2.868896e-09	1.484381e+01	1.862044e+02
9.700000e-07	2.220049e-06	3.377516e-09	1.589372e+01	2.193627e+02
9.800000e-07	2.365895e-06	3.873585e-09	1.693785e+01	2.518558e+02
9.900000e-07	2.510810e-06	4.353194e-09	1.797533e+01	2.834405e+02
1.000000e-06	2.654801e-06	4.812972e-09	1.900619e+01	3.139174e+02
1.010000e-06	2.797805e-06	5.253479e-09	2.002998e+01	3.431396e+02
1.020000e-06	2.939715e-06	5.675384e-09	2.104594e+01	3.710155e+02
1.030000e-06	3.080447e-06	6.076834e-09	2.205346e+01	3.975078e+02
1.040000e-06	3.219879e-06	6.456757e-09	2.305168e+01	4.226280e+02
1.050000e-06	3.358030e-06	6.816732e-09	2.404072e+01	4.464267e+02
1.060000e-06	3.494905e-06	7.159335e-09	2.502064e+01	4.689830e+02
1.070000e-06	3.630425e-06	7.486929e-09	2.599085e+01	4.903925e+02
1.080000e-06	3.764605e-06	7.799933e-09	2.695147e+01	5.107556e+02
1.090000e-06	3.897516e-06	8.096355e-09	2.790300e+01	5.301682e+02
1.100000e-06	4.029021e-06	8.377319e-09	2.884447e+01	5.487143e+02
1.110000e-06	4.158997e-06	8.645111e-09	2.977499e+01	5.664621e+02
1.120000e-06	4.287508e-06	8.902703e-09	3.069502e+01	5.834631e+02
1.130000e-06	4.414529e-06	9.149596e-09	3.160439e+01	5.997531e+02
1.140000e-06	4.540111e-06	9.386807e-09	3.250345e+01	6.153565e+02
1.150000e-06	4.664197e-06	9.613181e-09	3.339181e+01	6.302901e+02
1.160000e-06	4.786596e-06	9.826579e-09	3.426808e+01	6.445686e+02
1.170000e-06	4.907293e-06	1.002836e-08	3.513217e+01	6.582082e+02
1.180000e-06	5.026206e-06	1.022088e-08	3.598349e+01	6.712299e+02
1.190000e-06	5.143243e-06	1.040590e-08	3.682138e+01	6.836604e+02
1.200000e-06	5.258382e-06	1.058479e-08	3.764568e+01	6.955320e+02
1.210000e-06	5.371517e-06	1.075929e-08	3.845563e+01	7.068806e+02
1.220000e-06	5.482590e-06	1.092929e-08	3.925082e+01	7.177432e+02
1.230000e-06	5.591726e-06	1.109181e-08	4.003215e+01	7.281541e+02
1.240000e-06	5.698914e-06	1.124650e-08	4.079952e+01	7.381429e+02
1.250000e-06	5.803978e-06	1.139355e-08	4.155170e+01	7.477318e+02
1.260000e-06	5.906872e-06	1.153137e-08	4.228833e+01	7.569346e+02
1.270000e-06	6.007584e-06	1.166379e-08	4.300935e+01	7.657575e+02
1.280000e-06	6.106086e-06	1.179133e-08	4.371454e+01	7.742006e+02
1.290000e-06	6.202306e-06	1.191354e-08	4.440339e+01	7.822604e+02
1.300000e-06	6.296295e-06	1.203077e-08	4.507628e+01	7.899331e+02
1.310000e-06	6.388079e-06	1.214256e-08	4.573338e+01	7.972180e+02
1.320000e-06	6.477493e-06	1.225092e-08	4.637351e+01	8.041195e+02
1.330000e-06	6.564508e-06	1.235210e-08	4.699647e+01	8.106494e+02
1.340000e-06	6.649282e-06	1.244521e-08	4.760337e+01	8.168269e+02
1.350000e-06	6.731776e-06	1.253177e-08	4.819396e+01	8.226779e+02
1.360000e-06	6.811791e-06	1.261334e-08	4.876680e+01	8.282329e+02
1.370000e-06	6.889268e-06	1.269284e-08	4.932148e+01	8.335240e+02
1.380000e-06	6.964127e-06	1.276926e-08	4.985740e+01	8.385818e+02
1.390000e-06	7.036316e-06	1.284354e-08	5.037422e+01	8.434321e+02
1.400000e-06	7.106065e-06	1.291633e-08	5.087357e+01	8.480933e+02
1.410000e-06	7.173377e-06	1.298590e-08	5.135546e+01	8.525748e+02
1.420000e-06	7.238024e-06	1.305199e-08	5.181828e+01	8.568767e+02
1.430000e-06	7.300145e-06	1.311551e-08	5.226302e+01	8.609908e+02
1.440000e-06	7.359872e-06	1.317503e-08	5.269061e+01	8.649026e+02
1.450000e-06	7.417014e-06	1.322821e-08	5.309970e+01	8.685942e+02
1.460000e-06	7.471456e-06	1.327526e-08	5.348946e+01	8.720471e+02
1.470000e-06	7.522982e-06	1.331894e-08	5.385835e+01	8.752460e+02
1.480000e-06	7.571414e-06	1.336217e-08	5.420508e+01	8.781809e+02
1.490000e-06	7.617034e-06	1.340185e-08	5.453168e+01	8.808490e+02
1.500000e-06	7.660038e-06	1.343772e-08	5.483955e+01	8.832551e+02
1.510000e-06	7.700227e-06	1.347270e-08	5.512728e+01	8.854115e+02
1.520000e-06	7.737645e-06	1.350624e-08	5.539516e+01	8.873359e+02
1.530000e-06	7.772371e-06	1.353758e-08	5.564377e+01	8.890495e+02
1.540000e-06	7.804318e-06	1.356243e-08	5.587248e+01	8.905744e+02
1.550000e-06	7.833585e-06	1.358141e-08	5.608201e+01	8.919310e+02
1.560000e-06	7.860026e-06	1.359776e-08	5.627130e+01	8.931354e+02
1.570000e-06	7.883486e-06	1.361211e-08	5.643926e+01	8.941988e+02
1.580000e-06	7.904216e-06	1.362598e-08	5.658767e+01	8.951262e+02
1.590000e-06	7.922245e-06	1.363808e-08	5.671674e+01	8.959171e+02
1.600000e-06	7.937309e-06	1.364833e-08	5.682459e+01	8.965665e+02
1.610000e-06	7.949322e-06	1.365631e-08	5.691059e+01	8.970668e+02
1.620000e-06	7.958223e-06	1.366317e-08	5.697432e+01	8.974095e+02
1.630000e-06	7.964191e-06	1.366930e-08	5.701704e+01	8.975871e+02
1.640000e-06	7.967353e-06	1.367097e-08	5.703968e+01	8.975948e+02
1.650000e-06	7.967608e-06	1.366836e-08	5.704150e+01	8.974317e+02
1.660000e-06	7.965203e-06	1.366133e-08	5.702429e+01	8.971006e+02
1.670000e-06	7.960295e-06	1.365257e-08	5.698915e+01	8.966082e+02
1.680000e-06	7.952658e-06	1.364423e-08	5.693447e+01	8.959640e+02
1.690000e-06	7.942326e-06	1.363341e-08	5.686051e+01	8.951792e+02
1.700000e-06	7.929214e-06	1.362158e-08	5.676663e+01	8.942651e+02
1.710000e-06	7.913371e-06	1.360887e-08	5.665321e+01	8.932322e+02
1.720000e-06	7.895224e-06	1.359354e-08	5.652329e+01	8.920889e+02
1.730000e-06	7.874804e-06	1.356137e-08	5.637710e+01	8.908409e+02
1.740000e-06	7.851568e-06	1.350318e-08	5.621075e+01	8.894914e+02
1.750000e-06	7.824923e-06	1.348506e-08	5.601999e+01	8.880407e+02
1.760000e-06	7.794674e-06	1.348177e-08	5.580344e+01	8.864874e+02
1.770000e-06	7.761351e-06	1.345175e-08	5.556487e+01	8.848282e+02
1.780000e-06	7.725695e-06	1.342608e-08	5.530961e+01	8.830591e+02
1.790000e-06	7.687719e-06	1.343617e-08	5.503773e+01	8.811756e+02
1.800000e-06	7.647638e-06	1.342298e-08	5.475078e+01	8.791727e+02
1.810000e-06	7.605476e-06	1.337442e-08	5.444894e+01	8.770447e+02
1.820000e-06	7.560699e-06	1.339181e-08	5.412837e+01	8.747854e+02
1.830000e-06	7.513274e-06	1.333914e-08	5.378884e+01	8.723870e+02
1.840000e-06	7.463022e-06	1.327850e-08	5.342909e+01	8.698406e+02
1.850000e-06	7.409779e-06	1.321677e-08	5.304791e+01	8.671353e+02
1.860000e-06	7.353740e-06	1.313851e-08	5.264671e+01	8.642594e+02
1.870000e-06	7.295009e-06	1.312866e-08	5.222625e+01	8.612002e+02
1.880000e-06	7.233667e-06	1.307830e-08	5.178709e+01	8.579454e+02
1.890000e-06	7.169519e-06	1.306602e-08	5.132784e+01	8.544845e+02
1.900000e-06	7.102592e-06	1.300192e-08	5.084870e+01	8.508095e+02
1.910000e-06	7.032919e-06	1.290749e-08	5.034990e+01	8.469165e+02
1.920000e-06	6.960464e-06	1.286425e-08	4.983118e+01	8.428062e+02
1.930000e-06	6.885404e-06	1.279199e-08	4.929381e+01	8.384839e+02
1.940000e-06	6.807568e-06	1.275266e-08	4.873657e+01	8.339591e+02
1.950000e-06	6.727091e-06	1.267131e-08	4.816042e+01	8.292444e+02
1.960000e-06	6.644167e-06	1.258449e-08	4.756675e+01	8.243536e+02
1.970000e-06	6.558771e-06	1.249869e-08	4.695539e+01	8.192998e+02
1.980000e-06	6.470973e-06	1.239913e-08	4.632683e+01	8.140932e+02
1.990000e-06	6.380847e-06	1.233871e-08	4.568160e+01	8.087396e+02
2.000000e-06	6.288504e-06	1.226700e-08	4.502050e+01	8.032391e+02
2.010000e-06	6.193899e-06	1.218982e-08	4.434321e+01	7.975854e+02
2.020000e-06	6.097062e-06	1.208767e-08	4.364994e+01	7.917666e+02
2.030000e-06	5.998048e-06	1.198960e-08	4.294107e+01	7.857663e+02
2.040000e-06	5.896921e-06	1.189148e-08	4.221709e+01	7.795661e+02
2.050000e-06	5.793681e-06	1.179372e-08	4.147797e+01	7.731470e+02
2.060000e-06	5.688410e-06	1.169445e-08	4.072432e+01	7.664929e+02
2.070000e-06	5.581252e-06	1.159081e-08	3.995716e+01	7.595920e+02
2.080000e-06	5.472163e-06	1.148717e-08	3.917618e+01	7.524384e+02
2.090000e-06	5.361100e-06	1.137557e-08	3.838105e+01	7.450324e+02
2.100000e-06	5.248000e-06	1.126528e-08	3.757135e+01	7.373801e+02
2.110000e-06	5.132945e-06	1.114395e-08	3.674765e+01	7.294920e+02
2.120000e-06	5.015892e-06	1.101671e-08	3.590965e+01	7.213798e+02
2.130000e-06	4.896837e-06	1.088090e-08	3.505731e+01	7.130549e+02
2.140000e-06	4.775963e-06	1.075373e-08	3.419196e+01	7.045247e+02
2.150000e-06	4.653353e-06	1.063045e-08	3.331417e+01	6.957907e+02
2.160000e-06	4.529054e-06	1.049754e-08	3.242429e+01	6.868472e+02
2.170000e-06	4.403118e-06	1.035337e-08	3.152269e+01	6.776810e+02
2.180000e-06	4.275533e-06	1.020599e-08	3.060929e+01	6.682718e+02
2.190000e-06	4.146344e-06	1.006057e-08	2.968440e+01	6.585949e+02
2.200000e-06	4.015646e-06	9.913709e-09	2.874871e+01	6.486234e+02
2.210000e-06	3.883489e-06	9.763164e-09	2.780258e+01	6.383316e+02
2.220000e-06	3.749930e-06	9.601376e-09	2.684641e+01	6.276981e+02
2.230000e-06	3.614883e-06	9.425503e-09	2.587958e+01	6.167078e+02
2.240000e-06	3.478428e-06	9.241003e-09	2.490268e+01	6.053537e+02
2.250000e-06	3.340657e-06	9.061906e-09	2.391635e+01	5.936367e+02
2.260000e-06	3.201621e-06	8.889231e-09	2.292097e+01	5.815644e+02
2.270000e-06	3.061411e-06	8.712094e-09	2.191718e+01	5.691484e+02
2.280000e-06	2.920027e-06	8.524370e-09	2.090499e+01	5.564011e+02
2.290000e-06	2.777466e-06	8.328091e-09	1.988437e+01	5.433318e+02
2.300000e-06	2.633797e-06	8.123482e-09	1.885581e+01	5.299436e+02
2.310000e-06	2.489226e-06	7.912472e-09	1.782081e+01	5.162304e+02
2.320000e-06	2.343836e-06	7.698735e-09	1.677994e+01	5.021760e+02
2.330000e-06	2.197615e-06	7.477610e-09	1.573311e+01	4.877542e+02
2.340000e-06	2.050626e-06	7.246291e-09	1.468079e+01	4.729308e+02
2.350000e-06	1.902972e-06	7.007529e-09	1.362371e+01	4.576667e+02
2.360000e-06	1.754703e-06	6.767301e-09	1.256223e+01	4.419222e+02
2.370000e-06	1.605884e-06	6.522816e-09	1.149681e+01	4.256611e+02
2.380000e-06	1.456564e-06	6.265947e-09	1.042780e+01	4.088542e+02
2.390000e-06	1.306796e-06	6.000603e-09	9.355582e+00	3.914825e+02
2.400000e-06	1.156660e-06	5.730254e-09	8.280729e+00	3.735370e+02
2.410000e-06	1.006155e-06	5.452944e-09	7.203239e+00	3.550181e+02
2.420000e-06	8.553179e-07	5.165660e-09	6.123371e+00	3.359315e+02
2.430000e-06	7.041947e-07	4.866843e-09	5.041453e+00	3.162837e+02
2.440000e-06	5.527890e-07	4.555485e-09	3.957513e+00	2.960755e+02
2.450000e-06	4.011286e-07	4.234623e-09	2.871750e+00	2.752962e+02
2.460000e-06	2.492422e-07	3.909105e-09	1.784368e+00	2.539184e+02
2.470000e-06	9.720863e-08	3.577555e-09	6.959336e-01	2.318947e+02
2.480000e-06	-5.488472e-08	3.230724e-09	-3.929293e-01	2.091577e+02
2.490000e-06	-2.069499e-07	2.864067e-09	-1.481590e+00	1.856227e+02
2.500000e-06	-3.589904e-07	2.482008e-09	-2.570075e+00	1.611941e+02
2.510000e-06	-5.109682e-07	2.089285e-09	-3.658111e+00	1.357750e+02
2.520000e-06	-6.627220e-07	1.686582e-09	-4.744543e+00	1.092785e+02
2.530000e-06	-8.142271e-07	1.268881e-09	-5.829195e+00	8.164045e+01
2.540000e-06	-9.654434e-07	8.354255e-10	-6.911779e+00	5.283204e+01
2.550000e-06	-1.116232e-06	3.853715e-10	-7.991298e+00	2.286994e+01
2.560000e-06	-1.266595e-06	-8.282969e-11	-9.067779e+00	-8.176162e+00
2.570000e-06	-1.416540e-06	-5.682808e-10	-1.014126e+01	-4.018043e+01
2.580000e-06	-1.565975e-06	-1.071185e-09	-1.121109e+01	-7.296251e+01
2.590000e-06	-1.714868e-06	-1.588050e-09	-1.227704e+01	-1.062941e+02
2.600000e-06	-1.863176e-06	-2.111407e-09	-1.333881e+01	-1.399099e+02
2.610000e-06	-2.010798e-06	-2.634882e-09	-1.439565e+01	-1.735223e+02
2.620000e-06	-2.157612e-06	-3.150619e-09	-1.544673e+01	-2.068376e+02
2.630000e-06	-2.303635e-06	-3.651547e-09	-1.649213e+01	-2.395734e+02
2.640000e-06	-2.448875e-06	-4.135681e-09	-1.753193e+01	-2.714747e+02
2.650000e-06	-2.593186e-06	-4.602820e-09	-1.856507e+01	-3.023269e+02
2.660000e-06	-2.736403e-06	-5.052566e-09	-1.959039e+01	-3.319656e+02
2.670000e-06	-2.878458e-06	-5.480776e-09	-2.060739e+01	-3.602813e+02
2.680000e-06	-3.019372e-06	-5.887549e-09	-2.161621e+01	-3.872199e+02
2.690000e-06	-3.159115e-06	-6.278116e-09	-2.261666e+01	-4.127778e+02
2.700000e-06	-3.297608e-06	-6.652731e-09	-2.360815e+01	-4.369942e+02
2.710000e-06	-3.434884e-06	-7.008785e-09	-2.459093e+01	-4.599406e+02
2.720000e-06	-3.570897e-06	-7.344692e-09	-2.556468e+01	-4.817083e+02
2.730000e-06	-3.705555e-06	-7.662523e-09	-2.652872e+01	-5.023975e+02
2.740000e-06	-3.838891e-06	-7.966681e-09	-2.748330e+01	-5.221063e+02
2.750000e-06	-3.970903e-06	-8.259438e-09	-2.842839e+01	-5.409231e+02
2.760000e-06	-4.101498e-06	-8.539734e-09	-2.936334e+01	-5.589217e+02
2.770000e-06	-4.230660e-06	-8.804254e-09	-3.028804e+01	-5.761586e+02
2.780000e-06	-4.358354e-06	-9.054501e-09	-3.120222e+01	-5.926746e+02
2.790000e-06	-4.484539e-06	-9.294605e-09	-3.210560e+01	-6.084971e+02
2.800000e-06	-4.609245e-06	-9.526073e-09	-3.299839e+01	-6.236449e+02
2.810000e-06	-4.732322e-06	-9.748504e-09	-3.387952e+01	-6.381329e+02
2.820000e-06	-4.853684e-06	-9.961623e-09	-3.474838e+01	-6.519764e+02
2.830000e-06	-4.973260e-06	-1.016642e-08	-3.560444e+01	-6.651946e+02
2.840000e-06	-5.090887e-06	-1.036103e-08	-3.644655e+01	-6.778124e+02
2.850000e-06	-5.206474e-06	-1.054605e-08	-3.727406e+01	-6.898604e+02
2.860000e-06	-5.319941e-06	-1.072373e-08	-3.808639e+01	-7.013736e+02
2.870000e-06	-5.431300e-06	-1.089351e-08	-3.888363e+01	-7.123890e+02
2.880000e-06	-5.540660e-06	-1.105485e-08	-3.966656e+01	-7.229421e+02
2.890000e-06	-5.648114e-06	-1.120847e-08	-4.043584e+01	-7.330644e+02
2.900000e-06	-5.753656e-06	-1.135740e-08	-4.119143e+01	-7.427804e+02
2.910000e-06	-5.857012e-06	-1.150231e-08	-4.193138e+01	-7.521068e+02
2.920000e-06	-5.958082e-06	-1.164124e-08	-4.265495e+01	-7.610521e+02
2.930000e-06	-6.057073e-06	-1.177157e-08	-4.336365e+01	-7.696180e+02
2.940000e-06	-6.154000e-06	-1.189449e-08	-4.405757e+01	-7.778020e+02
