# Temperatura_=_43.92
# Concentracion g/m^3_=_15000.0
# C_Vs_to_Am_M_A/Vsm_=_65563218390.804596
# pendiente_HvsI_1/m_=_3716.3
# ordenada_HvsI_A/m_=_1297.0
# frecuencia_Hz_=_302434.70395457954

Tiempo_(s)	Campo_(V.s)	Magnetizacion_(V.s)	Campo_(kA/m)	Magnetizacion_(A/m)
0.000000e+00	-7.991975e-06	-1.269215e-08	-5.690013e+01	-8.304169e+02
1.000000e-08	-7.988625e-06	-1.268578e-08	-5.687628e+01	-8.300639e+02
2.000000e-08	-7.982732e-06	-1.267828e-08	-5.683433e+01	-8.295718e+02
3.000000e-08	-7.974171e-06	-1.267203e-08	-5.677337e+01	-8.289479e+02
4.000000e-08	-7.962763e-06	-1.266557e-08	-5.669216e+01	-8.282010e+02
5.000000e-08	-7.948419e-06	-1.265668e-08	-5.659003e+01	-8.273402e+02
6.000000e-08	-7.931177e-06	-1.264380e-08	-5.646727e+01	-8.263741e+02
7.000000e-08	-7.911578e-06	-1.262336e-08	-5.632773e+01	-8.253102e+02
8.000000e-08	-7.889653e-06	-1.261909e-08	-5.617163e+01	-8.241544e+02
9.000000e-08	-7.864797e-06	-1.262320e-08	-5.599467e+01	-8.229109e+02
1.000000e-07	-7.836700e-06	-1.259097e-08	-5.579463e+01	-8.215821e+02
1.100000e-07	-7.805592e-06	-1.254937e-08	-5.557315e+01	-8.201690e+02
1.200000e-07	-7.771713e-06	-1.252032e-08	-5.533195e+01	-8.186712e+02
1.300000e-07	-7.735204e-06	-1.249914e-08	-5.507201e+01	-8.170871e+02
1.400000e-07	-7.696404e-06	-1.246815e-08	-5.479577e+01	-8.154139e+02
1.500000e-07	-7.655378e-06	-1.241933e-08	-5.450368e+01	-8.136478e+02
1.600000e-07	-7.611893e-06	-1.239067e-08	-5.419408e+01	-8.117834e+02
1.700000e-07	-7.565737e-06	-1.232987e-08	-5.386547e+01	-8.098139e+02
1.800000e-07	-7.516821e-06	-1.227851e-08	-5.351720e+01	-8.077304e+02
1.900000e-07	-7.464948e-06	-1.228239e-08	-5.314788e+01	-8.055228e+02
2.000000e-07	-7.410087e-06	-1.226997e-08	-5.275729e+01	-8.031791e+02
2.100000e-07	-7.352527e-06	-1.224757e-08	-5.234748e+01	-8.006866e+02
2.200000e-07	-7.292365e-06	-1.221157e-08	-5.191915e+01	-7.980325e+02
2.300000e-07	-7.229611e-06	-1.216066e-08	-5.147236e+01	-7.952049e+02
2.400000e-07	-7.164124e-06	-1.208259e-08	-5.100612e+01	-7.921943e+02
2.500000e-07	-7.095898e-06	-1.202023e-08	-5.052037e+01	-7.889939e+02
2.600000e-07	-7.025008e-06	-1.198069e-08	-5.001566e+01	-7.856011e+02
2.700000e-07	-6.951306e-06	-1.191257e-08	-4.949092e+01	-7.820174e+02
2.800000e-07	-6.874759e-06	-1.183806e-08	-4.894594e+01	-7.782487e+02
2.900000e-07	-6.795428e-06	-1.177454e-08	-4.838113e+01	-7.743039e+02
3.000000e-07	-6.713508e-06	-1.172468e-08	-4.779788e+01	-7.701944e+02
3.100000e-07	-6.629292e-06	-1.166722e-08	-4.719830e+01	-7.659317e+02
3.200000e-07	-6.542824e-06	-1.160830e-08	-4.658267e+01	-7.615265e+02
3.300000e-07	-6.454011e-06	-1.155267e-08	-4.595035e+01	-7.569862e+02
3.400000e-07	-6.362901e-06	-1.148655e-08	-4.530168e+01	-7.523140e+02
3.500000e-07	-6.269528e-06	-1.141587e-08	-4.463690e+01	-7.475079e+02
3.600000e-07	-6.173804e-06	-1.133629e-08	-4.395538e+01	-7.425607e+02
3.700000e-07	-6.075791e-06	-1.125311e-08	-4.325756e+01	-7.374603e+02
3.800000e-07	-5.975583e-06	-1.115799e-08	-4.254411e+01	-7.321913e+02
3.900000e-07	-5.873189e-06	-1.106640e-08	-4.181510e+01	-7.267366e+02
4.000000e-07	-5.768726e-06	-1.098706e-08	-4.107136e+01	-7.210794e+02
4.100000e-07	-5.662277e-06	-1.090305e-08	-4.031348e+01	-7.152055e+02
4.200000e-07	-5.553792e-06	-1.080923e-08	-3.954110e+01	-7.091043e+02
4.300000e-07	-5.443297e-06	-1.070684e-08	-3.875442e+01	-7.027706e+02
4.400000e-07	-5.330820e-06	-1.060461e-08	-3.795362e+01	-6.962042e+02
4.500000e-07	-5.216310e-06	-1.050071e-08	-3.713834e+01	-6.894091e+02
4.600000e-07	-5.099773e-06	-1.039904e-08	-3.630864e+01	-6.823930e+02
4.700000e-07	-4.981390e-06	-1.029734e-08	-3.546580e+01	-6.751640e+02
4.800000e-07	-4.861261e-06	-1.018858e-08	-3.461052e+01	-6.677297e+02
4.900000e-07	-4.739374e-06	-1.006953e-08	-3.374273e+01	-6.600940e+02
5.000000e-07	-4.615709e-06	-9.943461e-09	-3.286227e+01	-6.522557e+02
5.100000e-07	-4.490348e-06	-9.815376e-09	-3.196975e+01	-6.442076e+02
5.200000e-07	-4.363362e-06	-9.685793e-09	-3.106565e+01	-6.359364e+02
5.300000e-07	-4.234721e-06	-9.551694e-09	-3.014977e+01	-6.274233e+02
5.400000e-07	-4.104535e-06	-9.408638e-09	-2.922289e+01	-6.186459e+02
5.500000e-07	-3.972845e-06	-9.264174e-09	-2.828530e+01	-6.095804e+02
5.600000e-07	-3.839683e-06	-9.123923e-09	-2.733723e+01	-6.002043e+02
5.700000e-07	-3.705022e-06	-8.982771e-09	-2.637849e+01	-5.904985e+02
5.800000e-07	-3.568885e-06	-8.834737e-09	-2.540924e+01	-5.804494e+02
5.900000e-07	-3.431411e-06	-8.682341e-09	-2.443047e+01	-5.700499e+02
6.000000e-07	-3.292578e-06	-8.525621e-09	-2.344203e+01	-5.592993e+02
6.100000e-07	-3.152261e-06	-8.355645e-09	-2.244302e+01	-5.482018e+02
6.200000e-07	-3.010507e-06	-8.173724e-09	-2.143378e+01	-5.367652e+02
6.300000e-07	-2.867548e-06	-7.985938e-09	-2.041597e+01	-5.249974e+02
6.400000e-07	-2.723563e-06	-7.793754e-09	-1.939084e+01	-5.129041e+02
6.500000e-07	-2.578618e-06	-7.596811e-09	-1.835888e+01	-5.004857e+02
6.600000e-07	-2.432770e-06	-7.399268e-09	-1.732049e+01	-4.877355e+02
6.700000e-07	-2.286089e-06	-7.205246e-09	-1.627618e+01	-4.746391e+02
6.800000e-07	-2.138682e-06	-7.005939e-09	-1.522669e+01	-4.611740e+02
6.900000e-07	-1.990588e-06	-6.796925e-09	-1.417231e+01	-4.473118e+02
7.000000e-07	-1.841832e-06	-6.578288e-09	-1.311322e+01	-4.330201e+02
7.100000e-07	-1.692569e-06	-6.354022e-09	-1.205051e+01	-4.182664e+02
7.200000e-07	-1.542884e-06	-6.122768e-09	-1.098480e+01	-4.030205e+02
7.300000e-07	-1.392706e-06	-5.881560e-09	-9.915592e+00	-3.872578e+02
7.400000e-07	-1.242000e-06	-5.630618e-09	-8.842619e+00	-3.709609e+02
7.500000e-07	-1.090790e-06	-5.368192e-09	-7.766051e+00	-3.541198e+02
7.600000e-07	-9.391512e-07	-5.099661e-09	-6.686436e+00	-3.367308e+02
7.700000e-07	-7.871591e-07	-4.827847e-09	-5.604304e+00	-3.187938e+02
7.800000e-07	-6.349206e-07	-4.551126e-09	-4.520418e+00	-3.003078e+02
7.900000e-07	-4.824586e-07	-4.264401e-09	-3.434940e+00	-2.812671e+02
8.000000e-07	-3.298023e-07	-3.966346e-09	-2.348080e+00	-2.616558e+02
8.100000e-07	-1.770503e-07	-3.655029e-09	-1.260537e+00	-2.414451e+02
8.200000e-07	-2.423911e-08	-3.331407e-09	-1.725742e-01	-2.205903e+02
8.300000e-07	1.286606e-07	-2.999461e-09	9.160196e-01	-1.990318e+02
8.400000e-07	2.816254e-07	-2.656596e-09	2.005077e+00	-1.766977e+02
8.500000e-07	4.345346e-07	-2.300623e-09	3.093738e+00	-1.535095e+02
8.600000e-07	5.872693e-07	-1.931514e-09	4.181157e+00	-1.293895e+02
8.700000e-07	7.398104e-07	-1.551206e-09	5.267197e+00	-1.042710e+02
8.800000e-07	8.921824e-07	-1.157060e-09	6.352034e+00	-7.810838e+01
8.900000e-07	1.044313e-06	-7.465674e-10	7.435151e+00	-5.088663e+01
9.000000e-07	1.196084e-06	-3.201887e-10	8.515710e+00	-2.263024e+01
9.100000e-07	1.347325e-06	1.219453e-10	9.592495e+00	6.591307e+00
9.200000e-07	1.497945e-06	5.794505e-10	1.066485e+01	3.666114e+01
9.300000e-07	1.647935e-06	1.049341e-09	1.173273e+01	6.741652e+01
9.400000e-07	1.797354e-06	1.528272e-09	1.279655e+01	9.865438e+01
9.500000e-07	1.946193e-06	2.011855e-09	1.385623e+01	1.301404e+02
9.600000e-07	2.094321e-06	2.494030e-09	1.491085e+01	1.616211e+02
9.700000e-07	2.241725e-06	2.971424e-09	1.596031e+01	1.928372e+02
9.800000e-07	2.388315e-06	3.437407e-09	1.700399e+01	2.235383e+02
9.900000e-07	2.533978e-06	3.890122e-09	1.804105e+01	2.534959e+02
1.000000e-06	2.678717e-06	4.329290e-09	1.907155e+01	2.825150e+02
1.010000e-06	2.822455e-06	4.754265e-09	2.009491e+01	3.104421e+02
1.020000e-06	2.965106e-06	5.161941e-09	2.111054e+01	3.371704e+02
1.030000e-06	3.106586e-06	5.548933e-09	2.211783e+01	3.626399e+02
1.040000e-06	3.246819e-06	5.914506e-09	2.311624e+01	3.868352e+02
1.050000e-06	3.385753e-06	6.259673e-09	2.410541e+01	4.097793e+02
1.060000e-06	3.523385e-06	6.588072e-09	2.508530e+01	4.315250e+02
1.070000e-06	3.659668e-06	6.902679e-09	2.605559e+01	4.521461e+02
1.080000e-06	3.794477e-06	7.202499e-09	2.701538e+01	4.717271e+02
1.090000e-06	3.927931e-06	7.485211e-09	2.796553e+01	4.903545e+02
1.100000e-06	4.060072e-06	7.754388e-09	2.890632e+01	5.081099e+02
1.110000e-06	4.190724e-06	8.012975e-09	2.983652e+01	5.250645e+02
1.120000e-06	4.319912e-06	8.260338e-09	3.075630e+01	5.412768e+02
1.130000e-06	4.447548e-06	8.495984e-09	3.166502e+01	5.567918e+02
1.140000e-06	4.573639e-06	8.721367e-09	3.256274e+01	5.716422e+02
1.150000e-06	4.698255e-06	8.935886e-09	3.344997e+01	5.858517e+02
1.160000e-06	4.821204e-06	9.138413e-09	3.432533e+01	5.994378e+02
1.170000e-06	4.942432e-06	9.329830e-09	3.518843e+01	6.124158e+02
1.180000e-06	5.061870e-06	9.512809e-09	3.603879e+01	6.248009e+02
1.190000e-06	5.179492e-06	9.689126e-09	3.687622e+01	6.366112e+02
1.200000e-06	5.295186e-06	9.859268e-09	3.769991e+01	6.478678e+02
1.210000e-06	5.408816e-06	1.002418e-08	3.850892e+01	6.585950e+02
1.220000e-06	5.520359e-06	1.018540e-08	3.930307e+01	6.688194e+02
1.230000e-06	5.629857e-06	1.033978e-08	4.008266e+01	6.785683e+02
1.240000e-06	5.737421e-06	1.048416e-08	4.084848e+01	6.878677e+02
1.250000e-06	5.842902e-06	1.061837e-08	4.159947e+01	6.967411e+02
1.260000e-06	5.946162e-06	1.074503e-08	4.233464e+01	7.052085e+02
1.270000e-06	6.047243e-06	1.086632e-08	4.305431e+01	7.132859e+02
1.280000e-06	6.146135e-06	1.098145e-08	4.375838e+01	7.209860e+02
1.290000e-06	6.242674e-06	1.109202e-08	4.444571e+01	7.283190e+02
1.300000e-06	6.336934e-06	1.119637e-08	4.511681e+01	7.352941e+02
1.310000e-06	6.428997e-06	1.129569e-08	4.577226e+01	7.419214e+02
1.320000e-06	6.518744e-06	1.139237e-08	4.641123e+01	7.482127e+02
1.330000e-06	6.606134e-06	1.148373e-08	4.703342e+01	7.541828e+02
1.340000e-06	6.691218e-06	1.156980e-08	4.763919e+01	7.598496e+02
1.350000e-06	6.774044e-06	1.165078e-08	4.822888e+01	7.652337e+02
1.360000e-06	6.854410e-06	1.172951e-08	4.880106e+01	7.703571e+02
1.370000e-06	6.932170e-06	1.180562e-08	4.935468e+01	7.752418e+02
1.380000e-06	7.007329e-06	1.187657e-08	4.988979e+01	7.799076e+02
1.390000e-06	7.079776e-06	1.194516e-08	5.040559e+01	7.843708e+02
1.400000e-06	7.149684e-06	1.200834e-08	5.090331e+01	7.886424e+02
1.410000e-06	7.217184e-06	1.206569e-08	5.138388e+01	7.927275e+02
1.420000e-06	7.282047e-06	1.212251e-08	5.184568e+01	7.966254e+02
1.430000e-06	7.344318e-06	1.218038e-08	5.228904e+01	8.003300e+02
1.440000e-06	7.404159e-06	1.223708e-08	5.271508e+01	8.038318e+02
1.450000e-06	7.461363e-06	1.228817e-08	5.312236e+01	8.071193e+02
1.460000e-06	7.515837e-06	1.233283e-08	5.351020e+01	8.101816e+02
1.470000e-06	7.567409e-06	1.237170e-08	5.387736e+01	8.130100e+02
1.480000e-06	7.615882e-06	1.240620e-08	5.422248e+01	8.156003e+02
1.490000e-06	7.661549e-06	1.243815e-08	5.454761e+01	8.179531e+02
1.500000e-06	7.704627e-06	1.246871e-08	5.485431e+01	8.200749e+02
1.510000e-06	7.744931e-06	1.249821e-08	5.514127e+01	8.219768e+02
1.520000e-06	7.782493e-06	1.252626e-08	5.540870e+01	8.236742e+02
1.530000e-06	7.817393e-06	1.255371e-08	5.565717e+01	8.251846e+02
1.540000e-06	7.849402e-06	1.257688e-08	5.588506e+01	8.265258e+02
1.550000e-06	7.878627e-06	1.259555e-08	5.609313e+01	8.277143e+02
1.560000e-06	7.905063e-06	1.261165e-08	5.628135e+01	8.287636e+02
1.570000e-06	7.928549e-06	1.262523e-08	5.644856e+01	8.296831e+02
1.580000e-06	7.949271e-06	1.263624e-08	5.659610e+01	8.304779e+02
1.590000e-06	7.967240e-06	1.264457e-08	5.672403e+01	8.311487e+02
1.600000e-06	7.982242e-06	1.265242e-08	5.683084e+01	8.316927e+02
1.610000e-06	7.994127e-06	1.265925e-08	5.691546e+01	8.321051e+02
1.620000e-06	8.002792e-06	1.266542e-08	5.697715e+01	8.323801e+02
1.630000e-06	8.008552e-06	1.267161e-08	5.701816e+01	8.325122e+02
1.640000e-06	8.011611e-06	1.267453e-08	5.703993e+01	8.324979e+02
1.650000e-06	8.011831e-06	1.267194e-08	5.704150e+01	8.323361e+02
1.660000e-06	8.009371e-06	1.266403e-08	5.702399e+01	8.320286e+02
1.670000e-06	8.004220e-06	1.265619e-08	5.698731e+01	8.315799e+02
1.680000e-06	7.996292e-06	1.264790e-08	5.693087e+01	8.309969e+02
1.690000e-06	7.985776e-06	1.263727e-08	5.685600e+01	8.302881e+02
1.700000e-06	7.972516e-06	1.262722e-08	5.676159e+01	8.294624e+02
1.710000e-06	7.956486e-06	1.261592e-08	5.664746e+01	8.285288e+02
1.720000e-06	7.938052e-06	1.260273e-08	5.651622e+01	8.274951e+02
1.730000e-06	7.917271e-06	1.255394e-08	5.636827e+01	8.263678e+02
1.740000e-06	7.893666e-06	1.252059e-08	5.620021e+01	8.251516e+02
1.750000e-06	7.866635e-06	1.252176e-08	5.600775e+01	8.238496e+02
1.760000e-06	7.836009e-06	1.250613e-08	5.578971e+01	8.224631e+02
1.770000e-06	7.802389e-06	1.247577e-08	5.555035e+01	8.209921e+02
1.780000e-06	7.766438e-06	1.245881e-08	5.529438e+01	8.194354e+02
1.790000e-06	7.728104e-06	1.245575e-08	5.502146e+01	8.177908e+02
1.800000e-06	7.687660e-06	1.242032e-08	5.473352e+01	8.160545e+02
1.810000e-06	7.645090e-06	1.242941e-08	5.443043e+01	8.142219e+02
1.820000e-06	7.599812e-06	1.242730e-08	5.410807e+01	8.122865e+02
1.830000e-06	7.551931e-06	1.238747e-08	5.376717e+01	8.102402e+02
1.840000e-06	7.501237e-06	1.234735e-08	5.340624e+01	8.080732e+02
1.850000e-06	7.447484e-06	1.226312e-08	5.302354e+01	8.057741e+02
1.860000e-06	7.390959e-06	1.223222e-08	5.262110e+01	8.033303e+02
1.870000e-06	7.331733e-06	1.218638e-08	5.219944e+01	8.007290e+02
1.880000e-06	7.269820e-06	1.216160e-08	5.175864e+01	7.979579e+02
1.890000e-06	7.205136e-06	1.216270e-08	5.129811e+01	7.950065e+02
1.900000e-06	7.137738e-06	1.208366e-08	5.081826e+01	7.918670e+02
1.910000e-06	7.067521e-06	1.203655e-08	5.031834e+01	7.885356e+02
1.920000e-06	6.994457e-06	1.198221e-08	4.979814e+01	7.850124e+02
1.930000e-06	6.918825e-06	1.193611e-08	4.925967e+01	7.813018e+02
1.940000e-06	6.840473e-06	1.188096e-08	4.870183e+01	7.774119e+02
1.950000e-06	6.759458e-06	1.181601e-08	4.812503e+01	7.733535e+02
1.960000e-06	6.675972e-06	1.175799e-08	4.753064e+01	7.691383e+02
1.970000e-06	6.589979e-06	1.166379e-08	4.691840e+01	7.647774e+02
1.980000e-06	6.501515e-06	1.159388e-08	4.628857e+01	7.602794e+02
1.990000e-06	6.410769e-06	1.152332e-08	4.564249e+01	7.556491e+02
2.000000e-06	6.317847e-06	1.147025e-08	4.498091e+01	7.508861e+02
2.010000e-06	6.222577e-06	1.139492e-08	4.430262e+01	7.459849e+02
2.020000e-06	6.125071e-06	1.132019e-08	4.360841e+01	7.409348e+02
2.030000e-06	6.025387e-06	1.124161e-08	4.289870e+01	7.357213e+02
2.040000e-06	5.923536e-06	1.114640e-08	4.217356e+01	7.303276e+02
2.050000e-06	5.819562e-06	1.105716e-08	4.143329e+01	7.247367e+02
2.060000e-06	5.713600e-06	1.096189e-08	4.067888e+01	7.189333e+02
2.070000e-06	5.605741e-06	1.088286e-08	3.991096e+01	7.129055e+02
2.080000e-06	5.495899e-06	1.078716e-08	3.912892e+01	7.066463e+02
2.090000e-06	5.384052e-06	1.069648e-08	3.833262e+01	7.001539e+02
2.100000e-06	5.270143e-06	1.059576e-08	3.752162e+01	6.934311e+02
2.110000e-06	5.154200e-06	1.049066e-08	3.669614e+01	6.864846e+02
2.120000e-06	5.036268e-06	1.037447e-08	3.585651e+01	6.793227e+02
2.130000e-06	4.916408e-06	1.025534e-08	3.500314e+01	6.719532e+02
2.140000e-06	4.794723e-06	1.014032e-08	3.413679e+01	6.643816e+02
2.150000e-06	4.671356e-06	1.002906e-08	3.325846e+01	6.566083e+02
2.160000e-06	4.546311e-06	9.916086e-09	3.236818e+01	6.486284e+02
2.170000e-06	4.419598e-06	9.791880e-09	3.146603e+01	6.404302e+02
2.180000e-06	4.291241e-06	9.666180e-09	3.055217e+01	6.319966e+02
2.190000e-06	4.161346e-06	9.532834e-09	2.962736e+01	6.233063e+02
2.200000e-06	4.029958e-06	9.398700e-09	2.869192e+01	6.143354e+02
2.210000e-06	3.897011e-06	9.254821e-09	2.774538e+01	6.050609e+02
2.220000e-06	3.762552e-06	9.106949e-09	2.678808e+01	5.954624e+02
2.230000e-06	3.626665e-06	8.947586e-09	2.582062e+01	5.855242e+02
2.240000e-06	3.489410e-06	8.782746e-09	2.484341e+01	5.752372e+02
2.250000e-06	3.350784e-06	8.619142e-09	2.385644e+01	5.645987e+02
2.260000e-06	3.210919e-06	8.462206e-09	2.286064e+01	5.536115e+02
2.270000e-06	3.069904e-06	8.303992e-09	2.185667e+01	5.422824e+02
2.280000e-06	2.927658e-06	8.134840e-09	2.084392e+01	5.306198e+02
2.290000e-06	2.784217e-06	7.955799e-09	1.982268e+01	5.186303e+02
2.300000e-06	2.639741e-06	7.767225e-09	1.879406e+01	5.063162e+02
2.310000e-06	2.494404e-06	7.570825e-09	1.775930e+01	4.936734e+02
2.320000e-06	2.348290e-06	7.367302e-09	1.671902e+01	4.806898e+02
2.330000e-06	2.201351e-06	7.159252e-09	1.567286e+01	4.673456e+02
2.340000e-06	2.053566e-06	6.946132e-09	1.462069e+01	4.536139e+02
2.350000e-06	1.905052e-06	6.728104e-09	1.356332e+01	4.394634e+02
2.360000e-06	1.755919e-06	6.506046e-09	1.250154e+01	4.248611e+02
2.370000e-06	1.606227e-06	6.278585e-09	1.143579e+01	4.097759e+02
2.380000e-06	1.456073e-06	6.042974e-09	1.036674e+01	3.941811e+02
2.390000e-06	1.305518e-06	5.799052e-09	9.294841e+00	3.780568e+02
2.400000e-06	1.154541e-06	5.547303e-09	8.219937e+00	3.613908e+02
2.410000e-06	1.003197e-06	5.287708e-09	7.142417e+00	3.441775e+02
2.420000e-06	8.514912e-07	5.017058e-09	6.062327e+00	3.264161e+02
2.430000e-06	6.993432e-07	4.736448e-09	4.979085e+00	3.081064e+02
2.440000e-06	5.469239e-07	4.446751e-09	3.893912e+00	2.892446e+02
2.450000e-06	3.943274e-07	4.149556e-09	2.807476e+00	2.698187e+02
2.460000e-06	2.415475e-07	3.847624e-09	1.719735e+00	2.498042e+02
2.470000e-06	8.862787e-08	3.537710e-09	6.310001e-01	2.291617e+02
2.480000e-06	-6.436641e-08	3.213356e-09	-4.582669e-01	2.078363e+02
2.490000e-06	-2.173322e-07	2.871580e-09	-1.547331e+00	1.857594e+02
2.500000e-06	-3.702493e-07	2.514186e-09	-2.636049e+00	1.628539e+02
2.510000e-06	-5.230662e-07	2.142987e-09	-3.724052e+00	1.390409e+02
2.520000e-06	-6.756948e-07	1.761181e-09	-4.810716e+00	1.142491e+02
2.530000e-06	-8.280463e-07	1.370491e-09	-5.895407e+00	8.842483e+01
2.540000e-06	-9.800814e-07	9.668743e-10	-6.977845e+00	6.154236e+01
2.550000e-06	-1.131727e-06	5.460211e-10	-8.057507e+00	3.361270e+01
2.560000e-06	-1.282890e-06	1.077685e-10	-9.133741e+00	4.690406e+00
2.570000e-06	-1.433556e-06	-3.444361e-10	-1.020643e+01	-2.512289e+01
2.580000e-06	-1.583741e-06	-8.097972e-10	-1.127569e+01	-5.567879e+01
2.590000e-06	-1.733448e-06	-1.289919e-09	-1.234156e+01	-8.678634e+01
2.600000e-06	-1.882615e-06	-1.778774e-09	-1.340357e+01	-1.182201e+02
2.610000e-06	-2.031053e-06	-2.266980e-09	-1.446040e+01	-1.497313e+02
2.620000e-06	-2.178606e-06	-2.749755e-09	-1.551093e+01	-1.810609e+02
2.630000e-06	-2.325247e-06	-3.222859e-09	-1.655497e+01	-2.119543e+02
2.640000e-06	-2.471102e-06	-3.683021e-09	-1.759340e+01	-2.421745e+02
2.650000e-06	-2.616135e-06	-4.128803e-09	-1.862599e+01	-2.715146e+02
2.660000e-06	-2.760127e-06	-4.557098e-09	-1.965116e+01	-2.998072e+02
2.670000e-06	-2.902975e-06	-4.966197e-09	-2.066819e+01	-3.269301e+02
2.680000e-06	-3.044682e-06	-5.358278e-09	-2.167709e+01	-3.528084e+02
2.690000e-06	-3.185157e-06	-5.735954e-09	-2.267723e+01	-3.774130e+02
2.700000e-06	-3.324273e-06	-6.097365e-09	-2.366769e+01	-4.007552e+02
2.710000e-06	-3.462163e-06	-6.439804e-09	-2.464942e+01	-4.228795e+02
2.720000e-06	-3.598865e-06	-6.763679e-09	-2.562269e+01	-4.438537e+02
2.730000e-06	-3.734189e-06	-7.071185e-09	-2.658615e+01	-4.637600e+02
2.740000e-06	-3.868147e-06	-7.363192e-09	-2.753989e+01	-4.826851e+02
2.750000e-06	-4.000771e-06	-7.639756e-09	-2.848412e+01	-5.007129e+02
2.760000e-06	-4.131986e-06	-7.902307e-09	-2.941833e+01	-5.179185e+02
2.770000e-06	-4.261819e-06	-8.152957e-09	-3.034270e+01	-5.343644e+02
2.780000e-06	-4.390195e-06	-8.394236e-09	-3.125669e+01	-5.500998e+02
2.790000e-06	-4.517044e-06	-8.626922e-09	-3.215981e+01	-5.651614e+02
2.800000e-06	-4.642321e-06	-8.851144e-09	-3.305174e+01	-5.795753e+02
2.810000e-06	-4.765908e-06	-9.066607e-09	-3.393164e+01	-5.933606e+02
2.820000e-06	-4.887812e-06	-9.270981e-09	-3.479955e+01	-6.065329e+02
2.830000e-06	-5.008033e-06	-9.462256e-09	-3.565548e+01	-6.191073e+02
2.840000e-06	-5.126346e-06	-9.641145e-09	-3.649783e+01	-6.311008e+02
2.850000e-06	-5.242482e-06	-9.813100e-09	-3.732468e+01	-6.425333e+02
2.860000e-06	-5.356442e-06	-9.979016e-09	-3.813604e+01	-6.534283e+02
2.870000e-06	-5.468327e-06	-1.013697e-08	-3.893262e+01	-6.638119e+02
2.880000e-06	-5.578145e-06	-1.028842e-08	-3.971449e+01	-6.737112e+02
2.890000e-06	-5.686022e-06	-1.043341e-08	-4.048254e+01	-6.831529e+02
2.900000e-06	-5.792009e-06	-1.057360e-08	-4.123713e+01	-6.921614e+02
2.910000e-06	-5.895890e-06	-1.070747e-08	-4.197672e+01	-7.007578e+02
2.920000e-06	-5.997485e-06	-1.083438e-08	-4.270005e+01	-7.089596e+02
2.930000e-06	-6.096890e-06	-1.095416e-08	-4.340777e+01	-7.167802e+02
2.940000e-06	-6.194163e-06	-1.106557e-08	-4.410033e+01	-7.242307e+02
