# Temperatura_=_47.02
# Concentracion g/m^3_=_15000.0
# C_Vs_to_Am_M_A/Vsm_=_65563218390.804596
# pendiente_HvsI_1/m_=_3716.3
# ordenada_HvsI_A/m_=_1297.0
# frecuencia_Hz_=_302430.2134474036

Tiempo_(s)	Campo_(V.s)	Magnetizacion_(V.s)	Campo_(kA/m)	Magnetizacion_(A/m)
0.000000e+00	-7.906835e-06	-1.290786e-08	-5.689901e+01	-8.444671e+02
1.000000e-08	-7.904165e-06	-1.290129e-08	-5.687980e+01	-8.441279e+02
2.000000e-08	-7.898825e-06	-1.289419e-08	-5.684137e+01	-8.436349e+02
3.000000e-08	-7.890845e-06	-1.288435e-08	-5.678394e+01	-8.429985e+02
4.000000e-08	-7.880108e-06	-1.287420e-08	-5.670668e+01	-8.422312e+02
5.000000e-08	-7.866406e-06	-1.286490e-08	-5.660808e+01	-8.413468e+02
6.000000e-08	-7.849857e-06	-1.285342e-08	-5.648899e+01	-8.403583e+02
7.000000e-08	-7.830897e-06	-1.283817e-08	-5.635254e+01	-8.392770e+02
8.000000e-08	-7.809689e-06	-1.282045e-08	-5.619993e+01	-8.381113e+02
9.000000e-08	-7.785753e-06	-1.280080e-08	-5.602768e+01	-8.368662e+02
1.000000e-07	-7.758605e-06	-1.281129e-08	-5.583232e+01	-8.355431e+02
1.100000e-07	-7.728427e-06	-1.278296e-08	-5.561515e+01	-8.341402e+02
1.200000e-07	-7.695505e-06	-1.273055e-08	-5.537825e+01	-8.326527e+02
1.300000e-07	-7.659893e-06	-1.270219e-08	-5.512197e+01	-8.310739e+02
1.400000e-07	-7.621904e-06	-1.267578e-08	-5.484860e+01	-8.293956e+02
1.500000e-07	-7.581814e-06	-1.264265e-08	-5.456010e+01	-8.276089e+02
1.600000e-07	-7.539404e-06	-1.257376e-08	-5.425491e+01	-8.257045e+02
1.700000e-07	-7.494390e-06	-1.257925e-08	-5.393098e+01	-8.236731e+02
1.800000e-07	-7.446669e-06	-1.251587e-08	-5.358757e+01	-8.215056e+02
1.900000e-07	-7.395990e-06	-1.243883e-08	-5.322287e+01	-8.191930e+02
2.000000e-07	-7.342384e-06	-1.246963e-08	-5.283712e+01	-8.167265e+02
2.100000e-07	-7.286085e-06	-1.241905e-08	-5.243198e+01	-8.140976e+02
2.200000e-07	-7.227074e-06	-1.239458e-08	-5.200733e+01	-8.112986e+02
2.300000e-07	-7.165440e-06	-1.236741e-08	-5.156380e+01	-8.083226e+02
2.400000e-07	-7.101223e-06	-1.230058e-08	-5.110168e+01	-8.051642e+02
2.500000e-07	-7.034278e-06	-1.223616e-08	-5.061993e+01	-8.018203e+02
2.600000e-07	-6.964662e-06	-1.215751e-08	-5.011896e+01	-7.982901e+02
2.700000e-07	-6.892366e-06	-1.210850e-08	-4.959871e+01	-7.945759e+02
2.800000e-07	-6.817302e-06	-1.203016e-08	-4.905853e+01	-7.906823e+02
2.900000e-07	-6.739415e-06	-1.197405e-08	-4.849804e+01	-7.866166e+02
3.000000e-07	-6.658722e-06	-1.191517e-08	-4.791736e+01	-7.823872e+02
3.100000e-07	-6.575685e-06	-1.185112e-08	-4.731982e+01	-7.780032e+02
3.200000e-07	-6.490543e-06	-1.180730e-08	-4.670712e+01	-7.734722e+02
3.300000e-07	-6.403142e-06	-1.172642e-08	-4.607816e+01	-7.688000e+02
3.400000e-07	-6.313360e-06	-1.165778e-08	-4.543208e+01	-7.639883e+02
3.500000e-07	-6.221336e-06	-1.158404e-08	-4.476985e+01	-7.590350e+02
3.600000e-07	-6.127152e-06	-1.151487e-08	-4.409209e+01	-7.539332e+02
3.700000e-07	-6.030663e-06	-1.142921e-08	-4.339774e+01	-7.486718e+02
3.800000e-07	-5.931890e-06	-1.133244e-08	-4.268695e+01	-7.432366e+02
3.900000e-07	-5.831022e-06	-1.124336e-08	-4.196108e+01	-7.376117e+02
4.000000e-07	-5.728174e-06	-1.114588e-08	-4.122098e+01	-7.317811e+02
4.100000e-07	-5.623242e-06	-1.105463e-08	-4.046586e+01	-7.257306e+02
4.200000e-07	-5.516230e-06	-1.095708e-08	-3.969578e+01	-7.194494e+02
4.300000e-07	-5.407292e-06	-1.087193e-08	-3.891185e+01	-7.129314e+02
4.400000e-07	-5.296536e-06	-1.077061e-08	-3.811483e+01	-7.061749e+02
4.500000e-07	-5.183871e-06	-1.065624e-08	-3.730407e+01	-6.991832e+02
4.600000e-07	-5.069103e-06	-1.054178e-08	-3.647818e+01	-6.919626e+02
4.700000e-07	-4.952266e-06	-1.043596e-08	-3.563740e+01	-6.845216e+02
4.800000e-07	-4.833614e-06	-1.032555e-08	-3.478356e+01	-6.768680e+02
4.900000e-07	-4.713190e-06	-1.020561e-08	-3.391697e+01	-6.690072e+02
5.000000e-07	-4.590978e-06	-1.008717e-08	-3.303750e+01	-6.609406e+02
5.100000e-07	-4.467178e-06	-9.956420e-09	-3.214662e+01	-6.526640e+02
5.200000e-07	-4.341854e-06	-9.817020e-09	-3.124476e+01	-6.441670e+02
5.300000e-07	-4.214961e-06	-9.670661e-09	-3.033162e+01	-6.354340e+02
5.400000e-07	-4.086520e-06	-9.527366e-09	-2.940734e+01	-6.264451e+02
5.500000e-07	-3.956514e-06	-9.381488e-09	-2.847179e+01	-6.171781e+02
5.600000e-07	-3.824952e-06	-9.238039e-09	-2.752504e+01	-6.076110e+02
5.700000e-07	-3.691975e-06	-9.096880e-09	-2.656812e+01	-5.977242e+02
5.800000e-07	-3.557700e-06	-8.950248e-09	-2.560185e+01	-5.875026e+02
5.900000e-07	-3.422127e-06	-8.794658e-09	-2.462625e+01	-5.769369e+02
6.000000e-07	-3.285226e-06	-8.631012e-09	-2.364108e+01	-5.660239e+02
6.100000e-07	-3.146932e-06	-8.458701e-09	-2.264589e+01	-5.547656e+02
6.200000e-07	-3.007265e-06	-8.272559e-09	-2.164082e+01	-5.431681e+02
6.300000e-07	-2.866347e-06	-8.080952e-09	-2.062675e+01	-5.312387e+02
6.400000e-07	-2.724225e-06	-7.887762e-09	-1.960401e+01	-5.189833e+02
6.500000e-07	-2.580974e-06	-7.692623e-09	-1.857315e+01	-5.064039e+02
6.600000e-07	-2.436697e-06	-7.490838e-09	-1.753491e+01	-4.934961e+02
6.700000e-07	-2.291496e-06	-7.287532e-09	-1.649002e+01	-4.802481e+02
6.800000e-07	-2.145539e-06	-7.083619e-09	-1.543969e+01	-4.666402e+02
6.900000e-07	-1.998998e-06	-6.873691e-09	-1.438515e+01	-4.526464e+02
7.000000e-07	-1.851908e-06	-6.656121e-09	-1.332666e+01	-4.382355e+02
7.100000e-07	-1.704221e-06	-6.428467e-09	-1.226388e+01	-4.233752e+02
7.200000e-07	-1.556012e-06	-6.192884e-09	-1.119734e+01	-4.080340e+02
7.300000e-07	-1.407351e-06	-5.948778e-09	-1.012755e+01	-3.921851e+02
7.400000e-07	-1.258309e-06	-5.698016e-09	-9.055020e+00	-3.758078e+02
7.500000e-07	-1.108895e-06	-5.438346e-09	-7.979811e+00	-3.588888e+02
7.600000e-07	-9.591038e-07	-5.170521e-09	-6.901884e+00	-3.414215e+02
7.700000e-07	-8.089959e-07	-4.896760e-09	-5.821681e+00	-3.234038e+02
7.800000e-07	-6.586211e-07	-4.616041e-09	-4.739556e+00	-3.048346e+02
7.900000e-07	-5.079863e-07	-4.327371e-09	-3.655561e+00	-2.857097e+02
8.000000e-07	-3.571084e-07	-4.028239e-09	-2.569817e+00	-2.660169e+02
8.100000e-07	-2.061198e-07	-3.717290e-09	-1.483276e+00	-2.457326e+02
8.200000e-07	-5.504987e-08	-3.395091e-09	-3.961488e-01	-2.248188e+02
8.300000e-07	9.607013e-08	-3.064522e-09	6.913380e-01	-2.032226e+02
8.400000e-07	2.471730e-07	-2.723090e-09	1.778701e+00	-1.808784e+02
8.500000e-07	3.982403e-07	-2.367614e-09	2.865809e+00	-1.577119e+02
8.600000e-07	5.491892e-07	-1.997375e-09	3.952065e+00	-1.336476e+02
8.700000e-07	7.000040e-07	-1.615722e-09	5.037355e+00	-1.086172e+02
8.800000e-07	8.505661e-07	-1.222600e-09	6.120827e+00	-8.256977e+01
8.900000e-07	1.000800e-06	-8.138711e-10	7.201940e+00	-5.548170e+01
9.000000e-07	1.150702e-06	-3.893233e-10	8.280660e+00	-2.736532e+01
9.100000e-07	1.300200e-06	5.061428e-11	9.356475e+00	1.724382e+00
9.200000e-07	1.449313e-06	5.051138e-10	1.042952e+01	3.168627e+01
9.300000e-07	1.597998e-06	9.733471e-10	1.149948e+01	6.237335e+01
9.400000e-07	1.746109e-06	1.451419e-09	1.256531e+01	9.359691e+01
9.500000e-07	1.893567e-06	1.935579e-09	1.362645e+01	1.251344e+02
9.600000e-07	2.040424e-06	2.421338e-09	1.468326e+01	1.567404e+02
9.700000e-07	2.186607e-06	2.902785e-09	1.573522e+01	1.881597e+02
9.800000e-07	2.331925e-06	3.374514e-09	1.678095e+01	2.191413e+02
9.900000e-07	2.476322e-06	3.832971e-09	1.782006e+01	2.494520e+02
1.000000e-06	2.619766e-06	4.278046e-09	1.885231e+01	2.788880e+02
1.010000e-06	2.762182e-06	4.709042e-09	1.987716e+01	3.072849e+02
1.020000e-06	2.903500e-06	5.123159e-09	2.089411e+01	3.345226e+02
1.030000e-06	3.043648e-06	5.518315e-09	2.190264e+01	3.605276e+02
1.040000e-06	3.182596e-06	5.893534e-09	2.290254e+01	3.852715e+02
1.050000e-06	3.320273e-06	6.248791e-09	2.389329e+01	4.087654e+02
1.060000e-06	3.456588e-06	6.585918e-09	2.487423e+01	4.310527e+02
1.070000e-06	3.591518e-06	6.907268e-09	2.584521e+01	4.521997e+02
1.080000e-06	3.725134e-06	7.213843e-09	2.680673e+01	4.722862e+02
1.090000e-06	3.857484e-06	7.503500e-09	2.775915e+01	4.913964e+02
1.100000e-06	3.988497e-06	7.779084e-09	2.870194e+01	5.096115e+02
1.110000e-06	4.118071e-06	8.044217e-09	2.963438e+01	5.270038e+02
1.120000e-06	4.246178e-06	8.298715e-09	3.055626e+01	5.436337e+02
1.130000e-06	4.372833e-06	8.542282e-09	3.146770e+01	5.595490e+02
1.140000e-06	4.498039e-06	8.774761e-09	3.236870e+01	5.747854e+02
1.150000e-06	4.621729e-06	8.996117e-09	3.325879e+01	5.893690e+02
1.160000e-06	4.743786e-06	9.204481e-09	3.413714e+01	6.033202e+02
1.170000e-06	4.864119e-06	9.400575e-09	3.500308e+01	6.166562e+02
1.180000e-06	4.982672e-06	9.587576e-09	3.585620e+01	6.293946e+02
1.190000e-06	5.099379e-06	9.767933e-09	3.669605e+01	6.415552e+02
1.200000e-06	5.214136e-06	9.942514e-09	3.752187e+01	6.531606e+02
1.210000e-06	5.326858e-06	1.011170e-08	3.833303e+01	6.642370e+02
1.220000e-06	5.437596e-06	1.027752e-08	3.912992e+01	6.748119e+02
1.230000e-06	5.546405e-06	1.043835e-08	3.991293e+01	6.849134e+02
1.240000e-06	5.653269e-06	1.058943e-08	4.068194e+01	6.945676e+02
1.250000e-06	5.758129e-06	1.073025e-08	4.143654e+01	7.037976e+02
1.260000e-06	5.860833e-06	1.086317e-08	4.217561e+01	7.126217e+02
1.270000e-06	5.961348e-06	1.099034e-08	4.289894e+01	7.210537e+02
1.280000e-06	6.059630e-06	1.111134e-08	4.360619e+01	7.291033e+02
1.290000e-06	6.155605e-06	1.122727e-08	4.429684e+01	7.367771e+02
1.300000e-06	6.249378e-06	1.133779e-08	4.497165e+01	7.440806e+02
1.310000e-06	6.341011e-06	1.144305e-08	4.563106e+01	7.510203e+02
1.320000e-06	6.430352e-06	1.154535e-08	4.627397e+01	7.576052e+02
1.330000e-06	6.517360e-06	1.164230e-08	4.690010e+01	7.638485e+02
1.340000e-06	6.602097e-06	1.173145e-08	4.750988e+01	7.697674e+02
1.350000e-06	6.684507e-06	1.181409e-08	4.810292e+01	7.753834e+02
1.360000e-06	6.764448e-06	1.189311e-08	4.867819e+01	7.807209e+02
1.370000e-06	6.841865e-06	1.196877e-08	4.923529e+01	7.858051e+02
1.380000e-06	6.916773e-06	1.204165e-08	4.977434e+01	7.906599e+02
1.390000e-06	6.989088e-06	1.211414e-08	5.029474e+01	7.953058e+02
1.400000e-06	7.058855e-06	1.218513e-08	5.079679e+01	7.997577e+02
1.410000e-06	7.126151e-06	1.225176e-08	5.128106e+01	8.040237e+02
1.420000e-06	7.190858e-06	1.231381e-08	5.174671e+01	8.081048e+02
1.430000e-06	7.253000e-06	1.237357e-08	5.219390e+01	8.119954e+02
1.440000e-06	7.312759e-06	1.242924e-08	5.262394e+01	8.156848e+02
1.450000e-06	7.370011e-06	1.247776e-08	5.303592e+01	8.191593e+02
1.460000e-06	7.424531e-06	1.252083e-08	5.342826e+01	8.224046e+02
1.470000e-06	7.476154e-06	1.256219e-08	5.379975e+01	8.254088e+02
1.480000e-06	7.524782e-06	1.260259e-08	5.414969e+01	8.281641e+02
1.490000e-06	7.570611e-06	1.264076e-08	5.447948e+01	8.306687e+02
1.500000e-06	7.613775e-06	1.267583e-08	5.479010e+01	8.329274e+02
1.510000e-06	7.654183e-06	1.270791e-08	5.508088e+01	8.349513e+02
1.520000e-06	7.691883e-06	1.273815e-08	5.535218e+01	8.367569e+02
1.530000e-06	7.726937e-06	1.276568e-08	5.560443e+01	8.383640e+02
1.540000e-06	7.759208e-06	1.278851e-08	5.583666e+01	8.397935e+02
1.550000e-06	7.788699e-06	1.280654e-08	5.604888e+01	8.410653e+02
1.560000e-06	7.815472e-06	1.282198e-08	5.624155e+01	8.421959e+02
1.570000e-06	7.839406e-06	1.283690e-08	5.641378e+01	8.431970e+02
1.580000e-06	7.860556e-06	1.285034e-08	5.656598e+01	8.440747e+02
1.590000e-06	7.878960e-06	1.286241e-08	5.669842e+01	8.448296e+02
1.600000e-06	7.894404e-06	1.287351e-08	5.680956e+01	8.454573e+02
1.610000e-06	7.906786e-06	1.288181e-08	5.689866e+01	8.459501e+02
1.620000e-06	7.916075e-06	1.288710e-08	5.696550e+01	8.462989e+02
1.630000e-06	7.922394e-06	1.289143e-08	5.701097e+01	8.464946e+02
1.640000e-06	7.925909e-06	1.289297e-08	5.703627e+01	8.465307e+02
1.650000e-06	7.926636e-06	1.289069e-08	5.704150e+01	8.464039e+02
1.660000e-06	7.924663e-06	1.288803e-08	5.702730e+01	8.461154e+02
1.670000e-06	7.920113e-06	1.287898e-08	5.699456e+01	8.456704e+02
1.680000e-06	7.912894e-06	1.286915e-08	5.694261e+01	8.450783e+02
1.690000e-06	7.903026e-06	1.285804e-08	5.687160e+01	8.443512e+02
1.700000e-06	7.890431e-06	1.284594e-08	5.678097e+01	8.435025e+02
1.710000e-06	7.875044e-06	1.283293e-08	5.667024e+01	8.425457e+02
1.720000e-06	7.857202e-06	1.281838e-08	5.654184e+01	8.414927e+02
1.730000e-06	7.837098e-06	1.280155e-08	5.639717e+01	8.403529e+02
1.740000e-06	7.814359e-06	1.276589e-08	5.623353e+01	8.391326e+02
1.750000e-06	7.788303e-06	1.271968e-08	5.604603e+01	8.378342e+02
1.760000e-06	7.758665e-06	1.272202e-08	5.583275e+01	8.364569e+02
1.770000e-06	7.725923e-06	1.271433e-08	5.559713e+01	8.349968e+02
1.780000e-06	7.690715e-06	1.268049e-08	5.534377e+01	8.334477e+02
1.790000e-06	7.653207e-06	1.264409e-08	5.507386e+01	8.318019e+02
1.800000e-06	7.613608e-06	1.266903e-08	5.478890e+01	8.300506e+02
1.810000e-06	7.571929e-06	1.261438e-08	5.448897e+01	8.281845e+02
1.820000e-06	7.527737e-06	1.259625e-08	5.417095e+01	8.261945e+02
1.830000e-06	7.480944e-06	1.264052e-08	5.383422e+01	8.240713e+02
1.840000e-06	7.431412e-06	1.254711e-08	5.347778e+01	8.218059e+02
1.850000e-06	7.378894e-06	1.254034e-08	5.309985e+01	8.193893e+02
1.860000e-06	7.323531e-06	1.245363e-08	5.270145e+01	8.168131e+02
1.870000e-06	7.265512e-06	1.238672e-08	5.228393e+01	8.140691e+02
1.880000e-06	7.204961e-06	1.235766e-08	5.184820e+01	8.111502e+02
1.890000e-06	7.141671e-06	1.228872e-08	5.139276e+01	8.080504e+02
1.900000e-06	7.075562e-06	1.230815e-08	5.091702e+01	8.047659e+02
1.910000e-06	7.006749e-06	1.223362e-08	5.042183e+01	8.012951e+02
1.920000e-06	6.935147e-06	1.219096e-08	4.990657e+01	7.976392e+02
1.930000e-06	6.860908e-06	1.212006e-08	4.937233e+01	7.938021e+02
1.940000e-06	6.783912e-06	1.204217e-08	4.881825e+01	7.897904e+02
1.950000e-06	6.704194e-06	1.200702e-08	4.824459e+01	7.856122e+02
1.960000e-06	6.622102e-06	1.190887e-08	4.765384e+01	7.812765e+02
1.970000e-06	6.537565e-06	1.186370e-08	4.704550e+01	7.767916e+02
1.980000e-06	6.450450e-06	1.177336e-08	4.641860e+01	7.721639e+02
1.990000e-06	6.360935e-06	1.170722e-08	4.577444e+01	7.673966e+02
2.000000e-06	6.269392e-06	1.163510e-08	4.511568e+01	7.624889e+02
2.010000e-06	6.175681e-06	1.155768e-08	4.444132e+01	7.574354e+02
2.020000e-06	6.079606e-06	1.149355e-08	4.374994e+01	7.522263e+02
2.030000e-06	5.981376e-06	1.139556e-08	4.304306e+01	7.468482e+02
2.040000e-06	5.881153e-06	1.131631e-08	4.232184e+01	7.412856e+02
2.050000e-06	5.778822e-06	1.121966e-08	4.158544e+01	7.355223e+02
2.060000e-06	5.674322e-06	1.113820e-08	4.083345e+01	7.295434e+02
2.070000e-06	5.567903e-06	1.103023e-08	4.006763e+01	7.233368e+02
2.080000e-06	5.459684e-06	1.092545e-08	3.928887e+01	7.168949e+02
2.090000e-06	5.349508e-06	1.082768e-08	3.849602e+01	7.102145e+02
2.100000e-06	5.237270e-06	1.073479e-08	3.768834e+01	7.032973e+02
2.110000e-06	5.123147e-06	1.063539e-08	3.686709e+01	6.961490e+02
2.120000e-06	5.007082e-06	1.052314e-08	3.603186e+01	6.887775e+02
2.130000e-06	4.888953e-06	1.040332e-08	3.518179e+01	6.811910e+02
2.140000e-06	4.768938e-06	1.026934e-08	3.431814e+01	6.733960e+02
2.150000e-06	4.647185e-06	1.014613e-08	3.344198e+01	6.653953e+02
2.160000e-06	4.523783e-06	1.002644e-08	3.255396e+01	6.571865e+02
2.170000e-06	4.398745e-06	9.912703e-09	3.165416e+01	6.487614e+02
2.180000e-06	4.272023e-06	9.782148e-09	3.074225e+01	6.401058e+02
2.190000e-06	4.143691e-06	9.646115e-09	2.981874e+01	6.312011e+02
2.200000e-06	4.013885e-06	9.503670e-09	2.888464e+01	6.220255e+02
2.210000e-06	3.882677e-06	9.361406e-09	2.794044e+01	6.125567e+02
2.220000e-06	3.750035e-06	9.212291e-09	2.698593e+01	6.027741e+02
2.230000e-06	3.615873e-06	9.054105e-09	2.602047e+01	5.926610e+02
2.240000e-06	3.480291e-06	8.886825e-09	2.504480e+01	5.822061e+02
2.250000e-06	3.343491e-06	8.714871e-09	2.406036e+01	5.714042e+02
2.260000e-06	3.205547e-06	8.549533e-09	2.306770e+01	5.602560e+02
2.270000e-06	3.066403e-06	8.385342e-09	2.206639e+01	5.487663e+02
2.280000e-06	2.925996e-06	8.213540e-09	2.105599e+01	5.369423e+02
2.290000e-06	2.784416e-06	8.028411e-09	2.003716e+01	5.247908e+02
2.300000e-06	2.641737e-06	7.841837e-09	1.901041e+01	5.123152e+02
2.310000e-06	2.497970e-06	7.651502e-09	1.797585e+01	4.995134e+02
2.320000e-06	2.353305e-06	7.454962e-09	1.693481e+01	4.863761e+02
2.330000e-06	2.207966e-06	7.247400e-09	1.588892e+01	4.728861e+02
2.340000e-06	2.061936e-06	7.028244e-09	1.483806e+01	4.590190e+02
2.350000e-06	1.915188e-06	6.802139e-09	1.378204e+01	4.447453e+02
2.360000e-06	1.767885e-06	6.575011e-09	1.272202e+01	4.300325e+02
2.370000e-06	1.620071e-06	6.347767e-09	1.165832e+01	4.148486e+02
2.380000e-06	1.471687e-06	6.113880e-09	1.059053e+01	3.991650e+02
2.390000e-06	1.322693e-06	5.869316e-09	9.518335e+00	3.829589e+02
2.400000e-06	1.173192e-06	5.613819e-09	8.442499e+00	3.662146e+02
2.410000e-06	1.023350e-06	5.351120e-09	7.364208e+00	3.489236e+02
2.420000e-06	8.732061e-07	5.081274e-09	6.283749e+00	3.310824e+02
2.430000e-06	7.228180e-07	4.804432e-09	5.201528e+00	3.126903e+02
2.440000e-06	5.721872e-07	4.517450e-09	4.117562e+00	2.937443e+02
2.450000e-06	4.213464e-07	4.217249e-09	3.032085e+00	2.742356e+02
2.460000e-06	2.703384e-07	3.907383e-09	1.945404e+00	2.541444e+02
2.470000e-06	1.191721e-07	3.590899e-09	8.575839e-01	2.334375e+02
2.480000e-06	-3.208731e-08	3.264961e-09	-2.309060e-01	2.120668e+02
2.490000e-06	-1.833524e-07	2.925103e-09	-1.319437e+00	1.899704e+02
2.500000e-06	-3.345247e-07	2.570891e-09	-2.407300e+00	1.670761e+02
2.510000e-06	-4.855634e-07	2.203400e-09	-3.494202e+00	1.433079e+02
2.520000e-06	-6.364760e-07	1.824565e-09	-4.580196e+00	1.185942e+02
2.530000e-06	-7.872364e-07	1.433310e-09	-5.665095e+00	9.287731e+01
2.540000e-06	-9.377808e-07	1.030843e-09	-6.748440e+00	6.612383e+01
2.550000e-06	-1.088024e-06	6.128738e-10	-7.829618e+00	3.833368e+01
2.560000e-06	-1.237856e-06	1.755373e-10	-8.907835e+00	9.547599e+00
2.570000e-06	-1.387198e-06	-2.776898e-10	-9.982525e+00	-2.014827e+01
2.580000e-06	-1.535996e-06	-7.418291e-10	-1.105331e+01	-5.062141e+01
2.590000e-06	-1.684188e-06	-1.216534e-09	-1.211972e+01	-8.169582e+01
2.600000e-06	-1.831739e-06	-1.702736e-09	-1.318152e+01	-1.131588e+02
2.610000e-06	-1.978628e-06	-2.193010e-09	-1.423857e+01	-1.447708e+02
2.620000e-06	-2.124821e-06	-2.679429e-09	-1.529060e+01	-1.762785e+02
2.630000e-06	-2.270281e-06	-3.157656e-09	-1.633735e+01	-2.074278e+02
2.640000e-06	-2.414898e-06	-3.623567e-09	-1.737804e+01	-2.379784e+02
2.650000e-06	-2.558562e-06	-4.074723e-09	-1.841187e+01	-2.677160e+02
2.660000e-06	-2.701185e-06	-4.511188e-09	-1.943821e+01	-2.964626e+02
2.670000e-06	-2.842693e-06	-4.930283e-09	-2.045653e+01	-3.240836e+02
2.680000e-06	-2.983054e-06	-5.329714e-09	-2.146660e+01	-3.504905e+02
2.690000e-06	-3.122232e-06	-5.711976e-09	-2.246814e+01	-3.756407e+02
2.700000e-06	-3.260180e-06	-6.079339e-09	-2.346084e+01	-3.995335e+02
2.710000e-06	-3.396841e-06	-6.429489e-09	-2.444428e+01	-4.222028e+02
2.720000e-06	-3.532296e-06	-6.761088e-09	-2.541904e+01	-4.437085e+02
2.730000e-06	-3.666511e-06	-7.076127e-09	-2.638487e+01	-4.641272e+02
2.740000e-06	-3.799353e-06	-7.376226e-09	-2.734083e+01	-4.835425e+02
2.750000e-06	-3.930846e-06	-7.662590e-09	-2.828707e+01	-5.020374e+02
2.760000e-06	-4.061057e-06	-7.935183e-09	-2.922410e+01	-5.196873e+02
2.770000e-06	-4.189944e-06	-8.192778e-09	-3.015159e+01	-5.365570e+02
2.780000e-06	-4.317348e-06	-8.436846e-09	-3.106841e+01	-5.526980e+02
2.790000e-06	-4.443210e-06	-8.670605e-09	-3.197414e+01	-5.681498e+02
2.800000e-06	-4.567483e-06	-8.897289e-09	-3.286843e+01	-5.829413e+02
2.810000e-06	-4.690161e-06	-9.117960e-09	-3.375124e+01	-5.970942e+02
2.820000e-06	-4.811171e-06	-9.329670e-09	-3.462205e+01	-6.106266e+02
2.830000e-06	-4.930347e-06	-9.530963e-09	-3.547966e+01	-6.235555e+02
2.840000e-06	-5.047595e-06	-9.720805e-09	-3.632340e+01	-6.358999e+02
2.850000e-06	-5.162769e-06	-9.900354e-09	-3.715222e+01	-6.476816e+02
2.860000e-06	-5.275847e-06	-1.007197e-08	-3.796594e+01	-6.589255e+02
2.870000e-06	-5.386866e-06	-1.023445e-08	-3.876486e+01	-6.696589e+02
2.880000e-06	-5.495908e-06	-1.038995e-08	-3.954955e+01	-6.799100e+02
2.890000e-06	-5.603056e-06	-1.053734e-08	-4.032060e+01	-6.897058e+02
2.900000e-06	-5.708327e-06	-1.067983e-08	-4.107815e+01	-6.990703e+02
2.910000e-06	-5.811503e-06	-1.081885e-08	-4.182062e+01	-7.080236e+02
2.920000e-06	-5.912428e-06	-1.095290e-08	-4.254690e+01	-7.165809e+02
2.930000e-06	-6.011237e-06	-1.108154e-08	-4.325794e+01	-7.247530e+02
2.940000e-06	-6.107955e-06	-1.120095e-08	-4.395395e+01	-7.325474e+02
