# Temperatura_=_29.6
# Concentracion g/m^3_=_15000.0
# C_Vs_to_Am_M_A/Vsm_=_65563218390.804596
# pendiente_HvsI_1/m_=_3716.3
# ordenada_HvsI_A/m_=_1297.0
# frecuencia_Hz_=_302435.1874522721

Tiempo_(s)	Campo_(V.s)	Magnetizacion_(V.s)	Campo_(kA/m)	Magnetizacion_(A/m)
0.000000e+00	-7.937310e-06	-1.245546e-08	-5.690249e+01	-8.146028e+02
1.000000e-08	-7.934049e-06	-1.244881e-08	-5.687911e+01	-8.142653e+02
2.000000e-08	-7.928161e-06	-1.244089e-08	-5.683690e+01	-8.137714e+02
3.000000e-08	-7.919712e-06	-1.243249e-08	-5.677633e+01	-8.131338e+02
4.000000e-08	-7.908454e-06	-1.242355e-08	-5.669562e+01	-8.123693e+02
5.000000e-08	-7.894190e-06	-1.241299e-08	-5.659337e+01	-8.114972e+02
6.000000e-08	-7.877119e-06	-1.239970e-08	-5.647098e+01	-8.105368e+02
7.000000e-08	-7.857695e-06	-1.238563e-08	-5.633173e+01	-8.095056e+02
8.000000e-08	-7.835951e-06	-1.238379e-08	-5.617585e+01	-8.084167e+02
9.000000e-08	-7.811371e-06	-1.236956e-08	-5.599963e+01	-8.072783e+02
1.000000e-07	-7.783563e-06	-1.235296e-08	-5.580028e+01	-8.060922e+02
1.100000e-07	-7.752744e-06	-1.232668e-08	-5.557934e+01	-8.048541e+02
1.200000e-07	-7.719159e-06	-1.228814e-08	-5.533857e+01	-8.035545e+02
1.300000e-07	-7.682939e-06	-1.224451e-08	-5.507891e+01	-8.021794e+02
1.400000e-07	-7.644431e-06	-1.220039e-08	-5.480285e+01	-8.007122e+02
1.500000e-07	-7.603717e-06	-1.220245e-08	-5.451097e+01	-7.991350e+02
1.600000e-07	-7.560572e-06	-1.217034e-08	-5.420166e+01	-7.974310e+02
1.700000e-07	-7.514800e-06	-1.214582e-08	-5.387352e+01	-7.955849e+02
1.800000e-07	-7.466329e-06	-1.212357e-08	-5.352604e+01	-7.935845e+02
1.900000e-07	-7.414893e-06	-1.203969e-08	-5.315729e+01	-7.914211e+02
2.000000e-07	-7.360542e-06	-1.201874e-08	-5.276765e+01	-7.890893e+02
2.100000e-07	-7.303476e-06	-1.198126e-08	-5.235854e+01	-7.865871e+02
2.200000e-07	-7.243718e-06	-1.194294e-08	-5.193014e+01	-7.839151e+02
2.300000e-07	-7.181436e-06	-1.192410e-08	-5.148364e+01	-7.810759e+02
2.400000e-07	-7.116437e-06	-1.185612e-08	-5.101766e+01	-7.780732e+02
2.500000e-07	-7.048655e-06	-1.180924e-08	-5.053173e+01	-7.749114e+02
2.600000e-07	-6.978269e-06	-1.176599e-08	-5.002714e+01	-7.715948e+02
2.700000e-07	-6.905117e-06	-1.171911e-08	-4.950271e+01	-7.681271e+02
2.800000e-07	-6.829194e-06	-1.163816e-08	-4.895842e+01	-7.645115e+02
2.900000e-07	-6.750504e-06	-1.158158e-08	-4.839429e+01	-7.607504e+02
3.000000e-07	-6.669084e-06	-1.153827e-08	-4.781060e+01	-7.568451e+02
3.100000e-07	-6.585367e-06	-1.146726e-08	-4.721042e+01	-7.527957e+02
3.200000e-07	-6.499518e-06	-1.142252e-08	-4.659497e+01	-7.486014e+02
3.300000e-07	-6.411345e-06	-1.135528e-08	-4.596286e+01	-7.442599e+02
3.400000e-07	-6.320752e-06	-1.127035e-08	-4.531341e+01	-7.397676e+02
3.500000e-07	-6.227870e-06	-1.119256e-08	-4.464754e+01	-7.351195e+02
3.600000e-07	-6.132780e-06	-1.113755e-08	-4.396584e+01	-7.303093e+02
3.700000e-07	-6.035449e-06	-1.106678e-08	-4.326807e+01	-7.253296e+02
3.800000e-07	-5.935918e-06	-1.097458e-08	-4.255453e+01	-7.201722e+02
3.900000e-07	-5.834293e-06	-1.089893e-08	-4.182599e+01	-7.148288e+02
4.000000e-07	-5.730608e-06	-1.081479e-08	-4.108267e+01	-7.092916e+02
4.100000e-07	-5.624817e-06	-1.071708e-08	-4.032425e+01	-7.035537e+02
4.200000e-07	-5.516993e-06	-1.061858e-08	-3.955126e+01	-6.976097e+02
4.300000e-07	-5.407321e-06	-1.054396e-08	-3.876503e+01	-6.914563e+02
4.400000e-07	-5.295785e-06	-1.045153e-08	-3.796543e+01	-6.850920e+02
4.500000e-07	-5.182185e-06	-1.033654e-08	-3.715103e+01	-6.785173e+02
4.600000e-07	-5.066476e-06	-1.023344e-08	-3.632151e+01	-6.717333e+02
4.700000e-07	-4.948838e-06	-1.013782e-08	-3.547817e+01	-6.647418e+02
4.800000e-07	-4.829448e-06	-1.002643e-08	-3.462226e+01	-6.575435e+02
4.900000e-07	-4.708333e-06	-9.910624e-09	-3.375399e+01	-6.501373e+02
5.000000e-07	-4.585504e-06	-9.800513e-09	-3.287343e+01	-6.425192e+02
5.100000e-07	-4.460988e-06	-9.675866e-09	-3.198078e+01	-6.346822e+02
5.200000e-07	-4.334822e-06	-9.546527e-09	-3.107630e+01	-6.266153e+02
5.300000e-07	-4.207124e-06	-9.421210e-09	-3.016082e+01	-6.183046e+02
5.400000e-07	-4.077936e-06	-9.291815e-09	-2.923468e+01	-6.097339e+02
5.500000e-07	-3.947140e-06	-9.147536e-09	-2.829700e+01	-6.008856e+02
5.600000e-07	-3.814788e-06	-9.006564e-09	-2.734817e+01	-5.917426e+02
5.700000e-07	-3.681058e-06	-8.869309e-09	-2.638947e+01	-5.822895e+02
5.800000e-07	-3.545996e-06	-8.719835e-09	-2.542121e+01	-5.725137e+02
5.900000e-07	-3.409560e-06	-8.564839e-09	-2.444310e+01	-5.624065e+02
6.000000e-07	-3.271838e-06	-8.412343e-09	-2.345578e+01	-5.519632e+02
6.100000e-07	-3.132785e-06	-8.247972e-09	-2.245890e+01	-5.411824e+02
6.200000e-07	-2.992253e-06	-8.064134e-09	-2.145143e+01	-5.300654e+02
6.300000e-07	-2.850460e-06	-7.882543e-09	-2.043492e+01	-5.186141e+02
6.400000e-07	-2.707567e-06	-7.707130e-09	-1.941052e+01	-5.068295e+02
6.500000e-07	-2.563602e-06	-7.524247e-09	-1.837844e+01	-4.947099e+02
6.600000e-07	-2.418689e-06	-7.330167e-09	-1.733956e+01	-4.822492e+02
6.700000e-07	-2.272892e-06	-7.135427e-09	-1.629434e+01	-4.694362e+02
6.800000e-07	-2.126359e-06	-6.935534e-09	-1.524384e+01	-4.562544e+02
6.900000e-07	-1.979204e-06	-6.723730e-09	-1.418890e+01	-4.426827e+02
7.000000e-07	-1.831444e-06	-6.507235e-09	-1.312960e+01	-4.286968e+02
7.100000e-07	-1.683168e-06	-6.287002e-09	-1.206661e+01	-4.142712e+02
7.200000e-07	-1.534392e-06	-6.059216e-09	-1.100004e+01	-3.993816e+02
7.300000e-07	-1.385137e-06	-5.823014e-09	-9.930030e+00	-3.840069e+02
7.400000e-07	-1.235465e-06	-5.583291e-09	-8.857035e+00	-3.681306e+02
7.500000e-07	-1.085363e-06	-5.334747e-09	-7.780956e+00	-3.517421e+02
7.600000e-07	-9.348462e-07	-5.075549e-09	-6.701903e+00	-3.348352e+02
7.700000e-07	-7.840143e-07	-4.810212e-09	-5.620590e+00	-3.174075e+02
7.800000e-07	-6.328954e-07	-4.539241e-09	-4.537221e+00	-2.994572e+02
7.900000e-07	-4.815328e-07	-4.259610e-09	-3.452104e+00	-2.809799e+02
8.000000e-07	-3.299966e-07	-3.969576e-09	-2.365742e+00	-2.619650e+02
8.100000e-07	-1.783636e-07	-3.669833e-09	-1.278687e+00	-2.423924e+02
8.200000e-07	-2.669346e-08	-3.358922e-09	-1.913651e-01	-2.222302e+02
8.300000e-07	1.250349e-07	-3.039316e-09	8.963735e-01	-2.014343e+02
8.400000e-07	2.767689e-07	-2.709061e-09	1.984153e+00	-1.799493e+02
8.500000e-07	4.284625e-07	-2.367398e-09	3.071643e+00	-1.577120e+02
8.600000e-07	5.800333e-07	-2.015672e-09	4.158253e+00	-1.346570e+02
8.700000e-07	7.314417e-07	-1.654646e-09	5.243698e+00	-1.107237e+02
8.800000e-07	8.826723e-07	-1.281142e-09	6.327868e+00	-8.586495e+01
8.900000e-07	1.033656e-06	-8.898627e-10	7.410268e+00	-6.005504e+01
9.000000e-07	1.184278e-06	-4.824168e-10	8.490080e+00	-3.329810e+01
9.100000e-07	1.334418e-06	-6.279085e-11	9.566432e+00	-5.634202e+00
9.200000e-07	1.484060e-06	3.680414e-10	1.063921e+01	2.285665e+01
9.300000e-07	1.633180e-06	8.124348e-10	1.170825e+01	5.205365e+01
9.400000e-07	1.781756e-06	1.267941e-09	1.277339e+01	8.179768e+01
9.500000e-07	1.929782e-06	1.730433e-09	1.383459e+01	1.118969e+02
9.600000e-07	2.077036e-06	2.193831e-09	1.489025e+01	1.421356e+02
9.700000e-07	2.223424e-06	2.654457e-09	1.593970e+01	1.722847e+02
9.800000e-07	2.369081e-06	3.108950e-09	1.698391e+01	2.021140e+02
9.900000e-07	2.513813e-06	3.552660e-09	1.802150e+01	2.314041e+02
1.000000e-06	2.657486e-06	3.984099e-09	1.905149e+01	2.599577e+02
1.010000e-06	2.800208e-06	4.402741e-09	2.007466e+01	2.876091e+02
1.020000e-06	2.941916e-06	4.807616e-09	2.109056e+01	3.142298e+02
1.030000e-06	3.082460e-06	5.195061e-09	2.209812e+01	3.397326e+02
1.040000e-06	3.221629e-06	5.564486e-09	2.309582e+01	3.640712e+02
1.050000e-06	3.359433e-06	5.915582e-09	2.408374e+01	3.872370e+02
1.060000e-06	3.496063e-06	6.249195e-09	2.506324e+01	4.092535e+02
1.070000e-06	3.631418e-06	6.566648e-09	2.603360e+01	4.301689e+02
1.080000e-06	3.765391e-06	6.867317e-09	2.699405e+01	4.500476e+02
1.090000e-06	3.898052e-06	7.153681e-09	2.794510e+01	4.689621e+02
1.100000e-06	4.029242e-06	7.428222e-09	2.888559e+01	4.869857e+02
1.110000e-06	4.158950e-06	7.691335e-09	2.981547e+01	5.041865e+02
1.120000e-06	4.287314e-06	7.943142e-09	3.073571e+01	5.206236e+02
1.130000e-06	4.414189e-06	8.183810e-09	3.164527e+01	5.363454e+02
1.140000e-06	4.539548e-06	8.411818e-09	3.254397e+01	5.513892e+02
1.150000e-06	4.663361e-06	8.627573e-09	3.343159e+01	5.657831e+02
1.160000e-06	4.785492e-06	8.831195e-09	3.430714e+01	5.795482e+02
1.170000e-06	4.905891e-06	9.024262e-09	3.517028e+01	5.927022e+02
1.180000e-06	5.024548e-06	9.209272e-09	3.602093e+01	6.052614e+02
1.190000e-06	5.141366e-06	9.388544e-09	3.685840e+01	6.172434e+02
1.200000e-06	5.256186e-06	9.562631e-09	3.768154e+01	6.286687e+02
1.210000e-06	5.369003e-06	9.729545e-09	3.849032e+01	6.395604e+02
1.220000e-06	5.479862e-06	9.890501e-09	3.928507e+01	6.499442e+02
1.230000e-06	5.588772e-06	1.004465e-08	4.006585e+01	6.598469e+02
1.240000e-06	5.695618e-06	1.019177e-08	4.083183e+01	6.692948e+02
1.250000e-06	5.800355e-06	1.033080e-08	4.158269e+01	6.783121e+02
1.260000e-06	5.903020e-06	1.045968e-08	4.231869e+01	6.869199e+02
1.270000e-06	6.003520e-06	1.058223e-08	4.303917e+01	6.951351e+02
1.280000e-06	6.101779e-06	1.069982e-08	4.374359e+01	7.029708e+02
1.290000e-06	6.197756e-06	1.081340e-08	4.443165e+01	7.104368e+02
1.300000e-06	6.291453e-06	1.092185e-08	4.510336e+01	7.175413e+02
1.310000e-06	6.382866e-06	1.102425e-08	4.575870e+01	7.242922e+02
1.320000e-06	6.472028e-06	1.112191e-08	4.639790e+01	7.306992e+02
1.330000e-06	6.558915e-06	1.121359e-08	4.702079e+01	7.367744e+02
1.340000e-06	6.643505e-06	1.129956e-08	4.762722e+01	7.425338e+02
1.350000e-06	6.725775e-06	1.138183e-08	4.821701e+01	7.479968e+02
1.360000e-06	6.805598e-06	1.146057e-08	4.878926e+01	7.531857e+02
1.370000e-06	6.882880e-06	1.153442e-08	4.934330e+01	7.581240e+02
1.380000e-06	6.957488e-06	1.160583e-08	4.987816e+01	7.628344e+02
1.390000e-06	7.029504e-06	1.167491e-08	5.039444e+01	7.673370e+02
1.400000e-06	7.099106e-06	1.174113e-08	5.089341e+01	7.716472e+02
1.410000e-06	7.166195e-06	1.180474e-08	5.137438e+01	7.757741e+02
1.420000e-06	7.230664e-06	1.186564e-08	5.183656e+01	7.797202e+02
1.430000e-06	7.292558e-06	1.192483e-08	5.228027e+01	7.834812e+02
1.440000e-06	7.351950e-06	1.197921e-08	5.270605e+01	7.870475e+02
1.450000e-06	7.408805e-06	1.202703e-08	5.311364e+01	7.904060e+02
1.460000e-06	7.462954e-06	1.207039e-08	5.350184e+01	7.935421e+02
1.470000e-06	7.514191e-06	1.211169e-08	5.386915e+01	7.964431e+02
1.480000e-06	7.562401e-06	1.215036e-08	5.421477e+01	7.990999e+02
1.490000e-06	7.607784e-06	1.218490e-08	5.454013e+01	8.015090e+02
1.500000e-06	7.650530e-06	1.221632e-08	5.484657e+01	8.036739e+02
1.510000e-06	7.690560e-06	1.224590e-08	5.513355e+01	8.056050e+02
1.520000e-06	7.727908e-06	1.227480e-08	5.540129e+01	8.073184e+02
1.530000e-06	7.762575e-06	1.230090e-08	5.564982e+01	8.088350e+02
1.540000e-06	7.794472e-06	1.232198e-08	5.587849e+01	8.101774e+02
1.550000e-06	7.823629e-06	1.233964e-08	5.608752e+01	8.113678e+02
1.560000e-06	7.849967e-06	1.235537e-08	5.627633e+01	8.124256e+02
1.570000e-06	7.873400e-06	1.236839e-08	5.644432e+01	8.133649e+02
1.580000e-06	7.894086e-06	1.238013e-08	5.659262e+01	8.141938e+02
1.590000e-06	7.912007e-06	1.239247e-08	5.672110e+01	8.149137e+02
1.600000e-06	7.926961e-06	1.240410e-08	5.682830e+01	8.155199e+02
1.610000e-06	7.938832e-06	1.241150e-08	5.691340e+01	8.160030e+02
1.620000e-06	7.947565e-06	1.241523e-08	5.697601e+01	8.163510e+02
1.630000e-06	7.953381e-06	1.241944e-08	5.701770e+01	8.165515e+02
1.640000e-06	7.956456e-06	1.242284e-08	5.703975e+01	8.165943e+02
1.650000e-06	7.956700e-06	1.242111e-08	5.704150e+01	8.164731e+02
1.660000e-06	7.954269e-06	1.241785e-08	5.702407e+01	8.161873e+02
1.670000e-06	7.949229e-06	1.240928e-08	5.698794e+01	8.157421e+02
1.680000e-06	7.941480e-06	1.240114e-08	5.693239e+01	8.151485e+02
1.690000e-06	7.931112e-06	1.239378e-08	5.685806e+01	8.144223e+02
1.700000e-06	7.917916e-06	1.238679e-08	5.676346e+01	8.135822e+02
1.710000e-06	7.901974e-06	1.237712e-08	5.664917e+01	8.126478e+02
1.720000e-06	7.883706e-06	1.235888e-08	5.651820e+01	8.116372e+02
1.730000e-06	7.863138e-06	1.232436e-08	5.637075e+01	8.105653e+02
1.740000e-06	7.839773e-06	1.230030e-08	5.620325e+01	8.094418e+02
1.750000e-06	7.812963e-06	1.227664e-08	5.601105e+01	8.082708e+02
1.760000e-06	7.782552e-06	1.226300e-08	5.579303e+01	8.070498e+02
1.770000e-06	7.749174e-06	1.225263e-08	5.555375e+01	8.057709e+02
1.780000e-06	7.713532e-06	1.225278e-08	5.529823e+01	8.044213e+02
1.790000e-06	7.675568e-06	1.221599e-08	5.502607e+01	8.029852e+02
1.800000e-06	7.635464e-06	1.222725e-08	5.473856e+01	8.014448e+02
1.810000e-06	7.593256e-06	1.221607e-08	5.443597e+01	7.997829e+02
1.820000e-06	7.548471e-06	1.215682e-08	5.411491e+01	7.979835e+02
1.830000e-06	7.501019e-06	1.220098e-08	5.377473e+01	7.960334e+02
1.840000e-06	7.450701e-06	1.214088e-08	5.341400e+01	7.939227e+02
1.850000e-06	7.397336e-06	1.212442e-08	5.303142e+01	7.916449e+02
1.860000e-06	7.341124e-06	1.208440e-08	5.262844e+01	7.891971e+02
1.870000e-06	7.282330e-06	1.197939e-08	5.220695e+01	7.865791e+02
1.880000e-06	7.220965e-06	1.195948e-08	5.176702e+01	7.837928e+02
1.890000e-06	7.156804e-06	1.189684e-08	5.130705e+01	7.808418e+02
1.900000e-06	7.089894e-06	1.187438e-08	5.082738e+01	7.777302e+02
1.910000e-06	7.020256e-06	1.183896e-08	5.032814e+01	7.744624e+02
1.920000e-06	6.947846e-06	1.178492e-08	4.980903e+01	7.710425e+02
1.930000e-06	6.872781e-06	1.171197e-08	4.927089e+01	7.674737e+02
1.940000e-06	6.794936e-06	1.164042e-08	4.871283e+01	7.637588e+02
1.950000e-06	6.714420e-06	1.162307e-08	4.813560e+01	7.598993e+02
1.960000e-06	6.631564e-06	1.153810e-08	4.754161e+01	7.558958e+02
1.970000e-06	6.546278e-06	1.147053e-08	4.693020e+01	7.517478e+02
1.980000e-06	6.458421e-06	1.141685e-08	4.630035e+01	7.474535e+02
1.990000e-06	6.368284e-06	1.135145e-08	4.565416e+01	7.430097e+02
2.000000e-06	6.276037e-06	1.128226e-08	4.499285e+01	7.384119e+02
2.010000e-06	6.181458e-06	1.121071e-08	4.431481e+01	7.336541e+02
2.020000e-06	6.084591e-06	1.114511e-08	4.362037e+01	7.287293e+02
2.030000e-06	5.985660e-06	1.104160e-08	4.291114e+01	7.236295e+02
2.040000e-06	5.884671e-06	1.095051e-08	4.218714e+01	7.183464e+02
2.050000e-06	5.781500e-06	1.088633e-08	4.144751e+01	7.128718e+02
2.060000e-06	5.676255e-06	1.082487e-08	4.069301e+01	7.071986e+02
2.070000e-06	5.569148e-06	1.071775e-08	3.992516e+01	7.013209e+02
2.080000e-06	5.460216e-06	1.060696e-08	3.914423e+01	6.952346e+02
2.090000e-06	5.349295e-06	1.051573e-08	3.834904e+01	6.889377e+02
2.100000e-06	5.236283e-06	1.041425e-08	3.753886e+01	6.824301e+02
2.110000e-06	5.121321e-06	1.031724e-08	3.671470e+01	6.757128e+02
2.120000e-06	5.004316e-06	1.022822e-08	3.587589e+01	6.687874e+02
2.130000e-06	4.885268e-06	1.012198e-08	3.502243e+01	6.616551e+02
2.140000e-06	4.764439e-06	9.991653e-09	3.415621e+01	6.543155e+02
2.150000e-06	4.641936e-06	9.872894e-09	3.327799e+01	6.467658e+02
2.160000e-06	4.517801e-06	9.766572e-09	3.238807e+01	6.389997e+02
2.170000e-06	4.392029e-06	9.650446e-09	3.148641e+01	6.310076e+02
2.180000e-06	4.264552e-06	9.517089e-09	3.057253e+01	6.227765e+02
2.190000e-06	4.135478e-06	9.388626e-09	2.964720e+01	6.142909e+02
2.200000e-06	4.004936e-06	9.257199e-09	2.871135e+01	6.055333e+02
2.210000e-06	3.872919e-06	9.118114e-09	2.776492e+01	5.964864e+02
2.220000e-06	3.739453e-06	8.980596e-09	2.680810e+01	5.871340e+02
2.230000e-06	3.604497e-06	8.836342e-09	2.584060e+01	5.774626e+02
2.240000e-06	3.468149e-06	8.674269e-09	2.486312e+01	5.674622e+02
2.250000e-06	3.330563e-06	8.509262e-09	2.387677e+01	5.571268e+02
2.260000e-06	3.191767e-06	8.360189e-09	2.288175e+01	5.464540e+02
2.270000e-06	3.051747e-06	8.208909e-09	2.187794e+01	5.354444e+02
2.280000e-06	2.910474e-06	8.037521e-09	2.086515e+01	5.240999e+02
2.290000e-06	2.767981e-06	7.850638e-09	1.984363e+01	5.124220e+02
2.300000e-06	2.624419e-06	7.662863e-09	1.881443e+01	5.004101e+02
2.310000e-06	2.479956e-06	7.473174e-09	1.777878e+01	4.880595e+02
2.320000e-06	2.334725e-06	7.284383e-09	1.673762e+01	4.753609e+02
2.330000e-06	2.188760e-06	7.095555e-09	1.569120e+01	4.622993e+02
2.340000e-06	2.042050e-06	6.892228e-09	1.463943e+01	4.488551e+02
2.350000e-06	1.894607e-06	6.673064e-09	1.358242e+01	4.350046e+02
2.360000e-06	1.746471e-06	6.450793e-09	1.252043e+01	4.207226e+02
2.370000e-06	1.597812e-06	6.230230e-09	1.145470e+01	4.059842e+02
2.380000e-06	1.448750e-06	6.001025e-09	1.038608e+01	3.907670e+02
2.390000e-06	1.299279e-06	5.759562e-09	9.314517e+00	3.750530e+02
2.400000e-06	1.149370e-06	5.510538e-09	8.239823e+00	3.588295e+02
2.410000e-06	9.990974e-07	5.256365e-09	7.162519e+00	3.420892e+02
2.420000e-06	8.484940e-07	4.994411e-09	6.082844e+00	3.248287e+02
2.430000e-06	6.975255e-07	4.726853e-09	5.000553e+00	3.070462e+02
2.440000e-06	5.462228e-07	4.450942e-09	3.915865e+00	2.887387e+02
2.450000e-06	3.946849e-07	4.161862e-09	2.829492e+00	2.698978e+02
2.460000e-06	2.428744e-07	3.862940e-09	1.741164e+00	2.505069e+02
2.470000e-06	9.088480e-08	3.559501e-09	6.515522e-01	2.305380e+02
2.480000e-06	-6.107485e-08	3.247725e-09	-4.378450e-01	2.099509e+02
2.490000e-06	-2.130332e-07	2.921892e-09	-1.527233e+00	1.886935e+02
2.500000e-06	-3.649800e-07	2.582426e-09	-2.616538e+00	1.667047e+02
2.510000e-06	-5.167560e-07	2.227801e-09	-3.704618e+00	1.439191e+02
2.520000e-06	-6.682659e-07	1.860376e-09	-4.790791e+00	1.202737e+02
2.530000e-06	-8.195132e-07	1.484342e-09	-5.875082e+00	9.571599e+01
2.540000e-06	-9.704640e-07	1.102554e-09	-6.957247e+00	7.021248e+01
2.550000e-06	-1.121043e-06	7.066593e-10	-8.036742e+00	4.375696e+01
2.560000e-06	-1.271158e-06	2.908238e-10	-9.112916e+00	1.637739e+01
2.570000e-06	-1.420797e-06	-1.392363e-10	-1.018568e+01	-1.185933e+01
2.580000e-06	-1.570002e-06	-5.808289e-10	-1.125532e+01	-4.084539e+01
2.590000e-06	-1.718693e-06	-1.034431e-09	-1.232130e+01	-7.043353e+01
2.600000e-06	-1.866775e-06	-1.497543e-09	-1.338289e+01	-1.004416e+02
2.610000e-06	-2.014171e-06	-1.963828e-09	-1.443957e+01	-1.306605e+02
2.620000e-06	-2.160758e-06	-2.429714e-09	-1.549045e+01	-1.608641e+02
2.630000e-06	-2.306553e-06	-2.891302e-09	-1.653566e+01	-1.908213e+02
2.640000e-06	-2.451628e-06	-3.342677e-09	-1.757569e+01	-2.203079e+02
2.650000e-06	-2.595754e-06	-3.781522e-09	-1.860893e+01	-2.491185e+02
2.660000e-06	-2.738710e-06	-4.207919e-09	-1.963378e+01	-2.770762e+02
2.670000e-06	-2.880492e-06	-4.619128e-09	-2.065022e+01	-3.040401e+02
2.680000e-06	-3.021119e-06	-5.012237e-09	-2.165837e+01	-3.299097e+02
2.690000e-06	-3.160583e-06	-5.389469e-09	-2.265818e+01	-3.546256e+02
2.700000e-06	-3.298833e-06	-5.751071e-09	-2.364930e+01	-3.781677e+02
2.710000e-06	-3.435895e-06	-6.095318e-09	-2.463190e+01	-4.005498e+02
2.720000e-06	-3.571622e-06	-6.421942e-09	-2.560492e+01	-4.218132e+02
2.730000e-06	-3.705949e-06	-6.732247e-09	-2.656791e+01	-4.420178e+02
2.740000e-06	-3.839045e-06	-7.028941e-09	-2.752207e+01	-4.612346e+02
2.750000e-06	-3.970847e-06	-7.311438e-09	-2.846696e+01	-4.795372e+02
2.760000e-06	-4.101235e-06	-7.579914e-09	-2.940171e+01	-4.969960e+02
2.770000e-06	-4.230234e-06	-7.838087e-09	-3.032650e+01	-5.136733e+02
2.780000e-06	-4.357689e-06	-8.084189e-09	-3.124023e+01	-5.296208e+02
2.790000e-06	-4.483624e-06	-8.317696e-09	-3.214305e+01	-5.448795e+02
2.800000e-06	-4.608128e-06	-8.541449e-09	-3.303562e+01	-5.594801e+02
2.810000e-06	-4.730988e-06	-8.756080e-09	-3.391640e+01	-5.734458e+02
2.820000e-06	-4.852122e-06	-8.963949e-09	-3.478481e+01	-5.867949e+02
2.830000e-06	-4.971434e-06	-9.161591e-09	-3.564016e+01	-5.995438e+02
2.840000e-06	-5.088824e-06	-9.347910e-09	-3.648173e+01	-6.117098e+02
2.850000e-06	-5.204152e-06	-9.524734e-09	-3.730851e+01	-6.233121e+02
2.860000e-06	-5.317243e-06	-9.692325e-09	-3.811926e+01	-6.343730e+02
2.870000e-06	-5.428273e-06	-9.852865e-09	-3.891523e+01	-6.449176e+02
2.880000e-06	-5.537415e-06	-1.000718e-08	-3.969767e+01	-6.549724e+02
2.890000e-06	-5.644642e-06	-1.015405e-08	-4.046638e+01	-6.645641e+02
2.900000e-06	-5.749925e-06	-1.029524e-08	-4.122115e+01	-6.737179e+02
2.910000e-06	-5.853095e-06	-1.043174e-08	-4.196078e+01	-6.824557e+02
2.920000e-06	-5.954049e-06	-1.056199e-08	-4.268452e+01	-6.907959e+02
2.930000e-06	-6.052848e-06	-1.068507e-08	-4.339280e+01	-6.987528e+02
2.940000e-06	-6.149503e-06	-1.080056e-08	-4.408572e+01	-7.063371e+02
