# Temperatura_=_60.1
# Concentracion g/m^3_=_15000.0
# C_Vs_to_Am_M_A/Vsm_=_65563218390.804596
# pendiente_HvsI_1/m_=_3716.3
# ordenada_HvsI_A/m_=_1297.0
# frecuencia_Hz_=_302390.366715907

Tiempo_(s)	Campo_(V.s)	Magnetizacion_(V.s)	Campo_(kA/m)	Magnetizacion_(A/m)
0.000000e+00	-7.984418e-06	-2.179846e-09	-5.691141e+01	-1.418501e+02
1.000000e-08	-7.980234e-06	-2.180485e-09	-5.688159e+01	-1.417833e+02
2.000000e-08	-7.973496e-06	-2.180929e-09	-5.683356e+01	-1.416829e+02
3.000000e-08	-7.964057e-06	-2.179976e-09	-5.676628e+01	-1.415497e+02
4.000000e-08	-7.951783e-06	-2.178346e-09	-5.667880e+01	-1.413847e+02
5.000000e-08	-7.936552e-06	-2.175064e-09	-5.657023e+01	-1.411890e+02
6.000000e-08	-7.918588e-06	-2.170128e-09	-5.644218e+01	-1.409638e+02
7.000000e-08	-7.898317e-06	-2.166665e-09	-5.629770e+01	-1.407104e+02
8.000000e-08	-7.875483e-06	-2.157387e-09	-5.613494e+01	-1.404298e+02
9.000000e-08	-7.849547e-06	-2.152180e-09	-5.595008e+01	-1.401227e+02
1.000000e-07	-7.820449e-06	-2.148516e-09	-5.574267e+01	-1.397898e+02
1.100000e-07	-7.788493e-06	-2.136440e-09	-5.551490e+01	-1.394311e+02
1.200000e-07	-7.753800e-06	-2.133895e-09	-5.526761e+01	-1.390466e+02
1.300000e-07	-7.716555e-06	-2.132422e-09	-5.500213e+01	-1.386357e+02
1.400000e-07	-7.677122e-06	-2.127102e-09	-5.472106e+01	-1.381978e+02
1.500000e-07	-7.635475e-06	-2.110703e-09	-5.442421e+01	-1.377319e+02
1.600000e-07	-7.591253e-06	-2.086533e-09	-5.410900e+01	-1.372373e+02
1.700000e-07	-7.544367e-06	-2.083928e-09	-5.377481e+01	-1.367132e+02
1.800000e-07	-7.494660e-06	-2.050168e-09	-5.342051e+01	-1.361589e+02
1.900000e-07	-7.441907e-06	-2.065181e-09	-5.304450e+01	-1.355741e+02
2.000000e-07	-7.386278e-06	-2.091120e-09	-5.264799e+01	-1.349587e+02
2.100000e-07	-7.327930e-06	-2.088527e-09	-5.223209e+01	-1.343131e+02
2.200000e-07	-7.266963e-06	-2.088882e-09	-5.179753e+01	-1.336376e+02
2.300000e-07	-7.203401e-06	-2.038609e-09	-5.134447e+01	-1.329330e+02
2.400000e-07	-7.137059e-06	-2.011755e-09	-5.087160e+01	-1.321999e+02
2.500000e-07	-7.067971e-06	-1.991729e-09	-5.037915e+01	-1.314392e+02
2.600000e-07	-6.996137e-06	-1.988712e-09	-4.986713e+01	-1.306513e+02
2.700000e-07	-6.921487e-06	-1.983433e-09	-4.933504e+01	-1.298367e+02
2.800000e-07	-6.844045e-06	-1.967112e-09	-4.878305e+01	-1.289955e+02
2.900000e-07	-6.763813e-06	-1.946645e-09	-4.821117e+01	-1.281275e+02
3.000000e-07	-6.681110e-06	-1.919051e-09	-4.762168e+01	-1.272320e+02
3.100000e-07	-6.596262e-06	-1.915711e-09	-4.701690e+01	-1.263083e+02
3.200000e-07	-6.509157e-06	-1.907827e-09	-4.639603e+01	-1.253555e+02
3.300000e-07	-6.419648e-06	-1.894169e-09	-4.575803e+01	-1.243722e+02
3.400000e-07	-6.327845e-06	-1.880882e-09	-4.510367e+01	-1.233576e+02
3.500000e-07	-6.233766e-06	-1.867811e-09	-4.443310e+01	-1.223106e+02
3.600000e-07	-6.137342e-06	-1.854522e-09	-4.374581e+01	-1.212306e+02
3.700000e-07	-6.038694e-06	-1.831796e-09	-4.304266e+01	-1.201170e+02
3.800000e-07	-5.937918e-06	-1.808813e-09	-4.232435e+01	-1.189698e+02
3.900000e-07	-5.834994e-06	-1.785268e-09	-4.159073e+01	-1.177894e+02
4.000000e-07	-5.729961e-06	-1.760199e-09	-4.084207e+01	-1.165763e+02
4.100000e-07	-5.622959e-06	-1.740627e-09	-4.007938e+01	-1.153314e+02
4.200000e-07	-5.514039e-06	-1.728363e-09	-3.930302e+01	-1.140559e+02
4.300000e-07	-5.403119e-06	-1.708931e-09	-3.851240e+01	-1.127508e+02
4.400000e-07	-5.290117e-06	-1.679334e-09	-3.770695e+01	-1.114172e+02
4.500000e-07	-5.175004e-06	-1.654564e-09	-3.688645e+01	-1.100558e+02
4.600000e-07	-5.057967e-06	-1.638055e-09	-3.605223e+01	-1.086673e+02
4.700000e-07	-4.939127e-06	-1.623021e-09	-3.520516e+01	-1.072515e+02
4.800000e-07	-4.818475e-06	-1.602829e-09	-3.434517e+01	-1.058080e+02
4.900000e-07	-4.696102e-06	-1.574218e-09	-3.347292e+01	-1.043359e+02
5.000000e-07	-4.571987e-06	-1.542860e-09	-3.258825e+01	-1.028336e+02
5.100000e-07	-4.446192e-06	-1.516357e-09	-3.169161e+01	-1.012992e+02
5.200000e-07	-4.318780e-06	-1.497134e-09	-3.078344e+01	-9.973047e+01
5.300000e-07	-4.189796e-06	-1.478495e-09	-2.986407e+01	-9.812489e+01
5.400000e-07	-4.059343e-06	-1.452236e-09	-2.893422e+01	-9.648003e+01
5.500000e-07	-3.927281e-06	-1.423263e-09	-2.799291e+01	-9.479358e+01
5.600000e-07	-3.793677e-06	-1.395208e-09	-2.704061e+01	-9.306352e+01
5.700000e-07	-3.658737e-06	-1.369156e-09	-2.607878e+01	-9.128827e+01
5.800000e-07	-3.522325e-06	-1.341908e-09	-2.510646e+01	-8.946679e+01
5.900000e-07	-3.384480e-06	-1.314281e-09	-2.412393e+01	-8.759859e+01
6.000000e-07	-3.245306e-06	-1.283552e-09	-2.313192e+01	-8.568371e+01
6.100000e-07	-3.104686e-06	-1.249466e-09	-2.212961e+01	-8.372269e+01
6.200000e-07	-2.962698e-06	-1.217193e-09	-2.111755e+01	-8.171636e+01
6.300000e-07	-2.819590e-06	-1.185613e-09	-2.009750e+01	-7.966572e+01
6.400000e-07	-2.675531e-06	-1.150227e-09	-1.907068e+01	-7.757173e+01
6.500000e-07	-2.530497e-06	-1.111882e-09	-1.803690e+01	-7.543512e+01
6.600000e-07	-2.384520e-06	-1.075563e-09	-1.699640e+01	-7.325620e+01
6.700000e-07	-2.237787e-06	-1.039668e-09	-1.595052e+01	-7.103472e+01
6.800000e-07	-2.090397e-06	-1.005839e-09	-1.489995e+01	-6.876981e+01
6.900000e-07	-1.942306e-06	-9.728978e-10	-1.384438e+01	-6.645995e+01
7.000000e-07	-1.793529e-06	-9.389987e-10	-1.278393e+01	-6.410304e+01
7.100000e-07	-1.644222e-06	-9.027275e-10	-1.171970e+01	-6.169651e+01
7.200000e-07	-1.494472e-06	-8.668284e-10	-1.065231e+01	-5.923749e+01
7.300000e-07	-1.344282e-06	-8.319878e-10	-9.581787e+00	-5.672296e+01
7.400000e-07	-1.193585e-06	-7.926577e-10	-8.507648e+00	-5.414999e+01
7.500000e-07	-1.042423e-06	-7.487645e-10	-7.430190e+00	-5.151585e+01
7.600000e-07	-8.909029e-07	-7.043368e-10	-6.350187e+00	-4.881809e+01
7.700000e-07	-7.390305e-07	-6.629049e-10	-5.267669e+00	-4.605458e+01
7.800000e-07	-5.868328e-07	-6.217932e-10	-4.182832e+00	-4.322343e+01
7.900000e-07	-4.344115e-07	-5.809534e-10	-3.096403e+00	-4.032282e+01
8.000000e-07	-2.818537e-07	-5.402596e-10	-2.008999e+00	-3.735086e+01
8.100000e-07	-1.291904e-07	-4.963253e-10	-9.208442e-01	-3.430527e+01
8.200000e-07	2.355331e-08	-4.488712e-10	1.678835e-01	-3.118319e+01
8.300000e-07	1.763172e-07	-4.005735e-10	1.256756e+00	-2.798103e+01
8.400000e-07	3.289651e-07	-3.511092e-10	2.344801e+00	-2.469434e+01
8.500000e-07	4.814991e-07	-2.996433e-10	3.432034e+00	-2.131789e+01
8.600000e-07	6.339885e-07	-2.468937e-10	4.518949e+00	-1.784586e+01
8.700000e-07	7.863524e-07	-1.926597e-10	5.604970e+00	-1.427222e+01
8.800000e-07	9.384379e-07	-1.381394e-10	6.689006e+00	-1.059126e+01
8.900000e-07	1.090160e-06	-8.214767e-11	7.770450e+00	-6.798224e+00
9.000000e-07	1.241471e-06	-2.475033e-11	8.848967e+00	-2.890021e+00
9.100000e-07	1.392289e-06	3.459630e-11	9.923971e+00	1.134016e+00
9.200000e-07	1.542588e-06	9.636516e-11	1.099527e+01	5.271481e+00
9.300000e-07	1.692339e-06	1.598030e-10	1.206267e+01	9.516351e+00
9.400000e-07	1.841509e-06	2.250357e-10	1.312593e+01	1.385865e+01
9.500000e-07	1.990017e-06	2.919952e-10	1.418446e+01	1.828435e+01
9.600000e-07	2.137717e-06	3.602154e-10	1.523724e+01	2.277556e+01
9.700000e-07	2.284580e-06	4.282326e-10	1.628405e+01	2.731099e+01
9.800000e-07	2.430641e-06	4.972705e-10	1.732514e+01	3.186671e+01
9.900000e-07	2.575809e-06	5.671590e-10	1.835987e+01	3.641703e+01
1.000000e-06	2.720055e-06	6.375021e-10	1.938803e+01	4.093563e+01
1.010000e-06	2.863296e-06	7.045039e-10	2.040903e+01	4.539671e+01
1.020000e-06	3.005401e-06	7.679258e-10	2.142193e+01	4.977606e+01
1.030000e-06	3.146285e-06	8.317291e-10	2.242612e+01	5.405211e+01
1.040000e-06	3.285805e-06	8.932207e-10	2.342059e+01	5.820671e+01
1.050000e-06	3.424020e-06	9.513150e-10	2.440576e+01	6.222570e+01
1.060000e-06	3.560969e-06	1.006493e-09	2.538191e+01	6.609913e+01
1.070000e-06	3.696566e-06	1.059763e-09	2.634842e+01	6.982130e+01
1.080000e-06	3.830812e-06	1.111824e-09	2.730530e+01	7.339042e+01
1.090000e-06	3.963721e-06	1.162617e-09	2.825265e+01	7.680810e+01
1.100000e-06	4.095234e-06	1.211510e-09	2.919005e+01	8.007864e+01
1.110000e-06	4.225273e-06	1.257644e-09	3.011694e+01	8.320826e+01
1.120000e-06	4.353861e-06	1.301793e-09	3.103349e+01	8.620427e+01
1.130000e-06	4.480916e-06	1.344261e-09	3.193912e+01	8.907435e+01
1.140000e-06	4.606424e-06	1.385702e-09	3.283372e+01	9.182590e+01
1.150000e-06	4.730409e-06	1.425873e-09	3.371746e+01	9.446554e+01
1.160000e-06	4.852711e-06	1.462119e-09	3.458920e+01	9.699887e+01
1.170000e-06	4.973277e-06	1.493808e-09	3.544857e+01	9.943031e+01
1.180000e-06	5.092034e-06	1.525254e-09	3.629505e+01	1.017632e+02
1.190000e-06	5.208896e-06	1.557831e-09	3.712802e+01	1.039999e+02
1.200000e-06	5.323784e-06	1.588357e-09	3.794692e+01	1.061421e+02
1.210000e-06	5.436591e-06	1.617275e-09	3.875099e+01	1.081913e+02
1.220000e-06	5.547338e-06	1.646729e-09	3.954037e+01	1.101489e+02
1.230000e-06	5.656131e-06	1.675902e-09	4.031583e+01	1.120164e+02
1.240000e-06	5.762972e-06	1.702075e-09	4.107737e+01	1.137959e+02
1.250000e-06	5.867685e-06	1.727042e-09	4.182374e+01	1.154899e+02
1.260000e-06	5.970180e-06	1.752348e-09	4.255431e+01	1.171016e+02
1.270000e-06	6.070463e-06	1.775058e-09	4.326911e+01	1.186346e+02
1.280000e-06	6.168500e-06	1.794088e-09	4.396789e+01	1.200927e+02
1.290000e-06	6.264188e-06	1.812915e-09	4.464994e+01	1.214800e+02
1.300000e-06	6.357630e-06	1.832939e-09	4.531597e+01	1.228007e+02
1.310000e-06	6.448861e-06	1.853755e-09	4.596626e+01	1.240587e+02
1.320000e-06	6.537726e-06	1.873421e-09	4.659966e+01	1.252575e+02
1.330000e-06	6.624245e-06	1.890384e-09	4.721636e+01	1.264003e+02
1.340000e-06	6.708509e-06	1.906716e-09	4.781697e+01	1.274900e+02
1.350000e-06	6.790459e-06	1.922525e-09	4.840110e+01	1.285289e+02
1.360000e-06	6.869934e-06	1.937833e-09	4.896758e+01	1.295190e+02
1.370000e-06	6.946864e-06	1.952375e-09	4.951592e+01	1.304619e+02
1.380000e-06	7.021156e-06	1.964951e-09	5.004547e+01	1.313593e+02
1.390000e-06	7.092804e-06	1.976700e-09	5.055616e+01	1.322123e+02
1.400000e-06	7.161938e-06	1.989619e-09	5.104893e+01	1.330223e+02
1.410000e-06	7.228540e-06	2.003435e-09	5.152366e+01	1.337906e+02
1.420000e-06	7.292529e-06	2.016923e-09	5.197976e+01	1.345186e+02
1.430000e-06	7.354058e-06	2.028438e-09	5.241833e+01	1.352074e+02
1.440000e-06	7.413090e-06	2.036991e-09	5.283909e+01	1.358585e+02
1.450000e-06	7.469454e-06	2.045089e-09	5.324084e+01	1.364732e+02
1.460000e-06	7.523076e-06	2.055988e-09	5.362306e+01	1.370527e+02
1.470000e-06	7.573696e-06	2.066335e-09	5.398386e+01	1.375983e+02
1.480000e-06	7.621270e-06	2.073073e-09	5.432296e+01	1.381109e+02
1.490000e-06	7.666107e-06	2.079369e-09	5.464255e+01	1.385915e+02
1.500000e-06	7.708289e-06	2.087410e-09	5.494322e+01	1.390409e+02
1.510000e-06	7.747648e-06	2.096540e-09	5.522376e+01	1.394597e+02
1.520000e-06	7.784285e-06	2.104874e-09	5.548490e+01	1.398484e+02
1.530000e-06	7.818236e-06	2.110655e-09	5.572690e+01	1.402073e+02
1.540000e-06	7.849374e-06	2.114376e-09	5.594884e+01	1.405366e+02
1.550000e-06	7.877754e-06	2.117197e-09	5.615113e+01	1.408363e+02
1.560000e-06	7.903233e-06	2.120595e-09	5.633274e+01	1.411062e+02
1.570000e-06	7.925802e-06	2.125658e-09	5.649361e+01	1.413460e+02
1.580000e-06	7.945687e-06	2.130842e-09	5.663535e+01	1.415553e+02
1.590000e-06	7.962764e-06	2.134358e-09	5.675707e+01	1.417336e+02
1.600000e-06	7.976806e-06	2.137449e-09	5.685715e+01	1.418802e+02
1.610000e-06	7.987695e-06	2.141684e-09	5.693477e+01	1.419945e+02
1.620000e-06	7.995546e-06	2.145635e-09	5.699073e+01	1.420757e+02
1.630000e-06	8.000570e-06	2.146382e-09	5.702654e+01	1.421233e+02
1.640000e-06	8.002669e-06	2.144960e-09	5.704150e+01	1.421368e+02
1.650000e-06	8.001896e-06	2.144188e-09	5.703599e+01	1.421162e+02
1.660000e-06	7.998588e-06	2.145935e-09	5.701241e+01	1.420615e+02
1.670000e-06	7.992696e-06	2.147090e-09	5.697042e+01	1.419729e+02
1.680000e-06	7.984086e-06	2.146575e-09	5.690904e+01	1.418513e+02
1.690000e-06	7.972768e-06	2.142816e-09	5.682837e+01	1.416975e+02
1.700000e-06	7.958636e-06	2.138059e-09	5.672764e+01	1.415125e+02
1.710000e-06	7.941884e-06	2.133658e-09	5.660824e+01	1.412977e+02
1.720000e-06	7.922853e-06	2.126673e-09	5.647259e+01	1.410541e+02
1.730000e-06	7.901365e-06	2.127970e-09	5.631942e+01	1.407830e+02
1.740000e-06	7.876780e-06	2.120226e-09	5.614419e+01	1.404853e+02
1.750000e-06	7.848617e-06	2.119027e-09	5.594345e+01	1.401615e+02
1.760000e-06	7.816989e-06	2.116529e-09	5.571801e+01	1.398120e+02
1.770000e-06	7.782638e-06	2.105203e-09	5.547316e+01	1.394367e+02
1.780000e-06	7.746048e-06	2.094034e-09	5.521235e+01	1.390352e+02
1.790000e-06	7.707207e-06	2.094623e-09	5.493550e+01	1.386070e+02
1.800000e-06	7.666247e-06	2.115959e-09	5.464355e+01	1.381511e+02
1.810000e-06	7.622912e-06	2.088900e-09	5.433466e+01	1.376668e+02
1.820000e-06	7.576935e-06	2.106469e-09	5.400695e+01	1.371532e+02
1.830000e-06	7.528266e-06	2.094154e-09	5.366005e+01	1.366097e+02
1.840000e-06	7.476672e-06	2.055236e-09	5.329229e+01	1.360357e+02
1.850000e-06	7.422196e-06	2.045264e-09	5.290400e+01	1.354312e+02
1.860000e-06	7.364954e-06	2.006267e-09	5.249599e+01	1.347963e+02
1.870000e-06	7.305078e-06	2.032625e-09	5.206921e+01	1.341313e+02
1.880000e-06	7.242475e-06	2.036924e-09	5.162298e+01	1.334370e+02
1.890000e-06	7.177011e-06	2.045070e-09	5.115637e+01	1.327139e+02
1.900000e-06	7.108826e-06	2.045345e-09	5.067036e+01	1.319629e+02
1.910000e-06	7.037825e-06	2.002606e-09	5.016427e+01	1.311846e+02
1.920000e-06	6.964087e-06	1.995547e-09	4.963869e+01	1.303795e+02
1.930000e-06	6.887647e-06	1.982025e-09	4.909384e+01	1.295477e+02
1.940000e-06	6.808421e-06	1.993740e-09	4.852913e+01	1.286892e+02
1.950000e-06	6.726670e-06	1.981706e-09	4.794642e+01	1.278036e+02
1.960000e-06	6.642483e-06	1.956588e-09	4.734635e+01	1.268900e+02
1.970000e-06	6.555842e-06	1.938347e-09	4.672879e+01	1.259476e+02
1.980000e-06	6.466792e-06	1.905309e-09	4.609406e+01	1.249753e+02
1.990000e-06	6.375512e-06	1.901551e-09	4.544344e+01	1.239720e+02
2.000000e-06	6.282009e-06	1.886532e-09	4.477697e+01	1.229366e+02
2.010000e-06	6.186186e-06	1.885011e-09	4.409396e+01	1.218683e+02
2.020000e-06	6.088158e-06	1.866783e-09	4.339523e+01	1.207667e+02
2.030000e-06	5.987988e-06	1.844218e-09	4.268124e+01	1.196314e+02
2.040000e-06	5.885628e-06	1.827768e-09	4.195164e+01	1.184627e+02
2.050000e-06	5.781171e-06	1.808751e-09	4.120709e+01	1.172611e+02
2.060000e-06	5.674791e-06	1.791039e-09	4.044883e+01	1.160274e+02
2.070000e-06	5.566500e-06	1.768461e-09	3.967695e+01	1.147626e+02
2.080000e-06	5.456273e-06	1.757801e-09	3.889128e+01	1.134679e+02
2.090000e-06	5.344030e-06	1.744683e-09	3.809123e+01	1.121443e+02
2.100000e-06	5.229718e-06	1.732821e-09	3.727643e+01	1.107927e+02
2.110000e-06	5.113384e-06	1.707677e-09	3.644723e+01	1.094138e+02
2.120000e-06	4.995108e-06	1.678018e-09	3.560418e+01	1.080077e+02
2.130000e-06	4.874892e-06	1.644487e-09	3.474730e+01	1.065742e+02
2.140000e-06	4.752852e-06	1.622009e-09	3.387743e+01	1.051124e+02
2.150000e-06	4.629131e-06	1.610139e-09	3.299556e+01	1.036210e+02
2.160000e-06	4.503709e-06	1.595463e-09	3.210158e+01	1.020983e+02
2.170000e-06	4.376638e-06	1.572785e-09	3.119584e+01	1.005420e+02
2.180000e-06	4.247934e-06	1.544544e-09	3.027847e+01	9.894976e+01
2.190000e-06	4.117684e-06	1.518974e-09	2.935007e+01	9.731914e+01
2.200000e-06	3.985907e-06	1.494563e-09	2.841079e+01	9.564773e+01
2.210000e-06	3.852591e-06	1.471947e-09	2.746053e+01	9.393338e+01
2.220000e-06	3.717875e-06	1.443953e-09	2.650030e+01	9.217436e+01
2.230000e-06	3.581770e-06	1.409740e-09	2.553017e+01	9.036941e+01
2.240000e-06	3.444272e-06	1.373786e-09	2.455011e+01	8.851785e+01
2.250000e-06	3.305458e-06	1.346654e-09	2.356067e+01	8.661954e+01
2.260000e-06	3.165394e-06	1.324614e-09	2.256232e+01	8.467485e+01
2.270000e-06	3.024059e-06	1.300746e-09	2.155492e+01	8.268453e+01
2.280000e-06	2.881532e-06	1.272077e-09	2.053901e+01	8.064953e+01
2.290000e-06	2.737914e-06	1.242066e-09	1.951533e+01	7.857086e+01
2.300000e-06	2.593271e-06	1.212084e-09	1.848434e+01	7.644935e+01
2.310000e-06	2.447750e-06	1.181104e-09	1.744709e+01	7.428547e+01
2.320000e-06	2.301502e-06	1.148071e-09	1.640467e+01	7.207919e+01
2.330000e-06	2.154529e-06	1.111856e-09	1.535707e+01	6.982986e+01
2.340000e-06	2.006725e-06	1.075758e-09	1.430356e+01	6.753621e+01
2.350000e-06	1.858090e-06	1.040960e-09	1.324411e+01	6.519631e+01
2.360000e-06	1.708817e-06	1.007535e-09	1.218012e+01	6.280776e+01
2.370000e-06	1.559111e-06	9.702328e-10	1.111304e+01	6.036776e+01
2.380000e-06	1.408994e-06	9.281949e-10	1.004304e+01	5.787333e+01
2.390000e-06	1.258454e-06	8.868443e-10	8.970021e+00	5.532150e+01
2.400000e-06	1.107506e-06	8.465740e-10	7.894092e+00	5.270943e+01
2.410000e-06	9.562135e-07	8.081388e-10	6.815708e+00	5.003459e+01
2.420000e-06	8.045992e-07	7.666124e-10	5.735030e+00	4.729473e+01
2.430000e-06	6.526787e-07	7.198352e-10	4.652169e+00	4.448787e+01
2.440000e-06	5.004820e-07	6.706213e-10	3.567340e+00	4.161222e+01
2.450000e-06	3.480439e-07	6.231493e-10	2.480791e+00	3.866591e+01
2.460000e-06	1.953994e-07	5.812790e-10	1.392770e+00	3.564684e+01
2.470000e-06	4.264380e-08	5.395552e-10	3.039569e-01	3.255239e+01
2.480000e-06	-1.100981e-07	4.923844e-10	-7.847580e-01	2.937923e+01
2.490000e-06	-2.628266e-07	4.395232e-10	-1.873378e+00	2.612323e+01
2.500000e-06	-4.155898e-07	3.826715e-10	-2.962245e+00	2.277941e+01
2.510000e-06	-5.682432e-07	3.255438e-10	-4.050330e+00	1.934214e+01
2.520000e-06	-7.205703e-07	2.686144e-10	-5.136088e+00	1.580541e+01
2.530000e-06	-8.725473e-07	2.111575e-10	-6.219351e+00	1.216333e+01
2.540000e-06	-1.024212e-06	1.536155e-10	-7.300390e+00	8.410710e+00
2.550000e-06	-1.175523e-06	9.405892e-11	-8.378907e+00	4.543789e+00
2.560000e-06	-1.326406e-06	3.349747e-11	-9.454371e+00	5.609529e-01
2.570000e-06	-1.476823e-06	-2.776621e-11	-1.052651e+01	-3.536561e+00
2.580000e-06	-1.626748e-06	-9.153897e-11	-1.159515e+01	-7.744073e+00
2.590000e-06	-1.776125e-06	-1.599701e-10	-1.265988e+01	-1.205304e+01
2.600000e-06	-1.924885e-06	-2.300234e-10	-1.372021e+01	-1.645088e+01
2.610000e-06	-2.072916e-06	-2.978383e-10	-1.477535e+01	-2.092104e+01
2.620000e-06	-2.220042e-06	-3.658490e-10	-1.582403e+01	-2.544337e+01
2.630000e-06	-2.366282e-06	-4.366016e-10	-1.686641e+01	-2.999479e+01
2.640000e-06	-2.511721e-06	-5.092800e-10	-1.790307e+01	-3.455011e+01
2.650000e-06	-2.656222e-06	-5.806019e-10	-1.893304e+01	-3.908312e+01
2.660000e-06	-2.799620e-06	-6.500338e-10	-1.995516e+01	-4.356769e+01
2.670000e-06	-2.941854e-06	-7.170372e-10	-2.096897e+01	-4.797893e+01
2.680000e-06	-3.082952e-06	-7.818483e-10	-2.197469e+01	-5.229421e+01
2.690000e-06	-3.222889e-06	-8.471492e-10	-2.297214e+01	-5.649410e+01
2.700000e-06	-3.361597e-06	-9.126570e-10	-2.396082e+01	-6.056295e+01
2.710000e-06	-3.499070e-06	-9.764234e-10	-2.494070e+01	-6.448930e+01
2.720000e-06	-3.635218e-06	-1.035784e-09	-2.591114e+01	-6.826595e+01
2.730000e-06	-3.769977e-06	-1.093536e-09	-2.687168e+01	-7.188978e+01
2.740000e-06	-3.903416e-06	-1.150754e-09	-2.782280e+01	-7.536124e+01
2.750000e-06	-4.035491e-06	-1.205333e-09	-2.876421e+01	-7.868377e+01
2.760000e-06	-4.166121e-06	-1.255422e-09	-2.969532e+01	-8.186298e+01
2.770000e-06	-4.295357e-06	-1.301131e-09	-3.061648e+01	-8.490590e+01
2.780000e-06	-4.423106e-06	-1.346374e-09	-3.152705e+01	-8.782014e+01
2.790000e-06	-4.549309e-06	-1.391105e-09	-3.242661e+01	-9.061328e+01
2.800000e-06	-4.673971e-06	-1.434417e-09	-3.331517e+01	-9.329225e+01
2.810000e-06	-4.796961e-06	-1.476704e-09	-3.419182e+01	-9.586304e+01
2.820000e-06	-4.918218e-06	-1.517315e-09	-3.505612e+01	-9.833050e+01
2.830000e-06	-5.037663e-06	-1.555140e-09	-3.590750e+01	-1.006983e+02
2.840000e-06	-5.155159e-06	-1.591910e-09	-3.674499e+01	-1.029692e+02
2.850000e-06	-5.270568e-06	-1.627892e-09	-3.756761e+01	-1.051451e+02
2.860000e-06	-5.383805e-06	-1.663167e-09	-3.837473e+01	-1.072274e+02
2.870000e-06	-5.494926e-06	-1.695512e-09	-3.916679e+01	-1.092176e+02
2.880000e-06	-5.604069e-06	-1.723140e-09	-3.994474e+01	-1.111171e+02
2.890000e-06	-5.711316e-06	-1.750993e-09	-4.070917e+01	-1.129278e+02
2.900000e-06	-5.816559e-06	-1.779867e-09	-4.145933e+01	-1.146521e+02
2.910000e-06	-5.919666e-06	-1.807994e-09	-4.219425e+01	-1.162929e+02
2.920000e-06	-6.020630e-06	-1.833464e-09	-4.291390e+01	-1.178536e+02
2.930000e-06	-6.119398e-06	-1.856999e-09	-4.361791e+01	-1.193381e+02
2.940000e-06	-6.216021e-06	-1.879184e-09	-4.430662e+01	-1.207503e+02
