# Temperatura_=_24.5
# Concentracion g/m^3_=_15000.0
# C_Vs_to_Am_M_A/Vsm_=_65563218390.804596
# pendiente_HvsI_1/m_=_3716.3
# ordenada_HvsI_A/m_=_1297.0
# frecuencia_Hz_=_302387.94627931993

Tiempo_(s)	Campo_(V.s)	Magnetizacion_(V.s)	Campo_(kA/m)	Magnetizacion_(A/m)
0.000000e+00	-8.029627e-06	-1.563553e-09	-5.691566e+01	-1.012263e+02
1.000000e-08	-8.025351e-06	-1.561888e-09	-5.688535e+01	-1.011190e+02
2.000000e-08	-8.018473e-06	-1.558856e-09	-5.683660e+01	-1.009737e+02
3.000000e-08	-8.008851e-06	-1.557983e-09	-5.676840e+01	-1.007995e+02
4.000000e-08	-7.996385e-06	-1.558009e-09	-5.668003e+01	-1.006079e+02
5.000000e-08	-7.980991e-06	-1.554204e-09	-5.657092e+01	-1.004115e+02
6.000000e-08	-7.962893e-06	-1.549516e-09	-5.644263e+01	-1.002230e+02
7.000000e-08	-7.942499e-06	-1.553004e-09	-5.629808e+01	-1.000528e+02
8.000000e-08	-7.919493e-06	-1.555238e-09	-5.613501e+01	-9.990852e+01
9.000000e-08	-7.893352e-06	-1.555356e-09	-5.594972e+01	-9.979306e+01
1.000000e-07	-7.864022e-06	-1.548558e-09	-5.574182e+01	-9.970462e+01
1.100000e-07	-7.831782e-06	-1.537738e-09	-5.551329e+01	-9.963640e+01
1.200000e-07	-7.796801e-06	-1.527666e-09	-5.526534e+01	-9.957729e+01
1.300000e-07	-7.759286e-06	-1.500141e-09	-5.499943e+01	-9.951294e+01
1.400000e-07	-7.719569e-06	-1.480528e-09	-5.471790e+01	-9.942738e+01
1.500000e-07	-7.677576e-06	-1.497589e-09	-5.442025e+01	-9.930473e+01
1.600000e-07	-7.633027e-06	-1.533754e-09	-5.410448e+01	-9.913101e+01
1.700000e-07	-7.585789e-06	-1.529785e-09	-5.376965e+01	-9.889564e+01
1.800000e-07	-7.535643e-06	-1.471889e-09	-5.341420e+01	-9.859260e+01
1.900000e-07	-7.482486e-06	-1.476574e-09	-5.303741e+01	-9.822100e+01
2.000000e-07	-7.426529e-06	-1.483557e-09	-5.264078e+01	-9.778499e+01
2.100000e-07	-7.367845e-06	-1.486226e-09	-5.222481e+01	-9.729320e+01
2.200000e-07	-7.306530e-06	-1.522426e-09	-5.179020e+01	-9.675747e+01
2.300000e-07	-7.242541e-06	-1.482303e-09	-5.133663e+01	-9.619145e+01
2.400000e-07	-7.175691e-06	-1.416957e-09	-5.086278e+01	-9.560888e+01
2.500000e-07	-7.106165e-06	-1.404832e-09	-5.036997e+01	-9.502205e+01
2.600000e-07	-7.033948e-06	-1.444890e-09	-4.985808e+01	-9.444046e+01
2.700000e-07	-6.958867e-06	-1.442434e-09	-4.932589e+01	-9.386991e+01
2.800000e-07	-6.880934e-06	-1.417882e-09	-4.877348e+01	-9.331219e+01
2.900000e-07	-6.800281e-06	-1.406836e-09	-4.820180e+01	-9.276518e+01
3.000000e-07	-6.717186e-06	-1.380467e-09	-4.761281e+01	-9.222355e+01
3.100000e-07	-6.631814e-06	-1.374540e-09	-4.700767e+01	-9.167973e+01
3.200000e-07	-6.544113e-06	-1.383345e-09	-4.638603e+01	-9.112520e+01
3.300000e-07	-6.454048e-06	-1.378470e-09	-4.574763e+01	-9.055171e+01
3.400000e-07	-6.361621e-06	-1.355790e-09	-4.509248e+01	-8.995239e+01
3.500000e-07	-6.266893e-06	-1.348776e-09	-4.442104e+01	-8.932255e+01
3.600000e-07	-6.169887e-06	-1.354597e-09	-4.373344e+01	-8.866012e+01
3.700000e-07	-6.070643e-06	-1.346909e-09	-4.302998e+01	-8.796561e+01
3.800000e-07	-5.969242e-06	-1.332811e-09	-4.231122e+01	-8.724174e+01
3.900000e-07	-5.865697e-06	-1.312976e-09	-4.157728e+01	-8.649267e+01
4.000000e-07	-5.760094e-06	-1.281980e-09	-4.082874e+01	-8.572317e+01
4.100000e-07	-5.652487e-06	-1.259696e-09	-4.006600e+01	-8.493766e+01
4.200000e-07	-5.542932e-06	-1.272215e-09	-3.928945e+01	-8.413938e+01
4.300000e-07	-5.431351e-06	-1.281190e-09	-3.849854e+01	-8.332985e+01
4.400000e-07	-5.317674e-06	-1.248260e-09	-3.769278e+01	-8.250854e+01
4.500000e-07	-5.201907e-06	-1.210320e-09	-3.687219e+01	-8.167302e+01
4.600000e-07	-5.084125e-06	-1.201709e-09	-3.603733e+01	-8.081924e+01
4.700000e-07	-4.964517e-06	-1.194604e-09	-3.518952e+01	-7.994224e+01
4.800000e-07	-4.843154e-06	-1.180490e-09	-3.432928e+01	-7.903685e+01
4.900000e-07	-4.720054e-06	-1.174355e-09	-3.345672e+01	-7.809843e+01
5.000000e-07	-4.595215e-06	-1.159319e-09	-3.257184e+01	-7.712355e+01
5.100000e-07	-4.468710e-06	-1.129245e-09	-3.167514e+01	-7.611040e+01
5.200000e-07	-4.340594e-06	-1.114947e-09	-3.076703e+01	-7.505894e+01
5.300000e-07	-4.210893e-06	-1.117585e-09	-2.984768e+01	-7.397079e+01
5.400000e-07	-4.079624e-06	-1.099429e-09	-2.891722e+01	-7.284885e+01
5.500000e-07	-3.946801e-06	-1.064976e-09	-2.797574e+01	-7.169669e+01
5.600000e-07	-3.812494e-06	-1.046727e-09	-2.702374e+01	-7.051795e+01
5.700000e-07	-3.676723e-06	-1.036978e-09	-2.606137e+01	-6.931564e+01
5.800000e-07	-3.539556e-06	-1.011969e-09	-2.508911e+01	-6.809162e+01
5.900000e-07	-3.400994e-06	-9.881607e-10	-2.410695e+01	-6.684629e+01
6.000000e-07	-3.260924e-06	-9.740365e-10	-2.311411e+01	-6.557846e+01
6.100000e-07	-3.119433e-06	-9.510705e-10	-2.211119e+01	-6.428548e+01
6.200000e-07	-2.976713e-06	-9.220993e-10	-2.109956e+01	-6.296361e+01
6.300000e-07	-2.832821e-06	-9.068281e-10	-2.007963e+01	-6.160851e+01
6.400000e-07	-2.687878e-06	-8.963105e-10	-1.905223e+01	-6.021575e+01
6.500000e-07	-2.542035e-06	-8.675703e-10	-1.801847e+01	-5.878139e+01
6.600000e-07	-2.395362e-06	-8.305918e-10	-1.697882e+01	-5.730230e+01
6.700000e-07	-2.247877e-06	-8.028042e-10	-1.593342e+01	-5.577648e+01
6.800000e-07	-2.099628e-06	-7.806260e-10	-1.488260e+01	-5.420305e+01
6.900000e-07	-1.950778e-06	-7.563348e-10	-1.382752e+01	-5.258213e+01
7.000000e-07	-1.801388e-06	-7.352119e-10	-1.276861e+01	-5.091451e+01
7.100000e-07	-1.651403e-06	-7.155536e-10	-1.170549e+01	-4.920132e+01
7.200000e-07	-1.500784e-06	-6.902921e-10	-1.063786e+01	-4.744359e+01
7.300000e-07	-1.349593e-06	-6.616158e-10	-9.566196e+00	-4.564196e+01
7.400000e-07	-1.197947e-06	-6.324818e-10	-8.491300e+00	-4.379643e+01
7.500000e-07	-1.045867e-06	-6.033904e-10	-7.413319e+00	-4.190630e+01
7.600000e-07	-8.934417e-07	-5.717306e-10	-6.332900e+00	-3.997025e+01
7.700000e-07	-7.407745e-07	-5.396703e-10	-5.250763e+00	-3.798658e+01
7.800000e-07	-5.879317e-07	-5.090659e-10	-4.167382e+00	-3.595340e+01
7.900000e-07	-4.348910e-07	-4.791394e-10	-3.082598e+00	-3.386903e+01
8.000000e-07	-2.816140e-07	-4.488312e-10	-1.996139e+00	-3.173211e+01
8.100000e-07	-1.282039e-07	-4.155445e-10	-9.087360e-01	-2.954181e+01
8.200000e-07	2.529455e-08	-3.807998e-10	1.792930e-01	-2.729771e+01
8.300000e-07	1.788018e-07	-3.470826e-10	1.267384e+00	-2.499969e+01
8.400000e-07	3.322371e-07	-3.132523e-10	2.354965e+00	-2.264755e+01
8.500000e-07	4.855649e-07	-2.791105e-10	3.441784e+00	-2.024071e+01
8.600000e-07	6.387543e-07	-2.447181e-10	4.527623e+00	-1.777778e+01
8.700000e-07	7.917736e-07	-2.092099e-10	5.612255e+00	-1.525636e+01
8.800000e-07	9.445744e-07	-1.708473e-10	6.695339e+00	-1.267297e+01
8.900000e-07	1.097146e-06	-1.298912e-10	7.776801e+00	-1.002313e+01
9.000000e-07	1.249426e-06	-8.997535e-11	8.856191e+00	-7.301821e+00
9.100000e-07	1.401226e-06	-5.164222e-11	9.932182e+00	-4.504114e+00
9.200000e-07	1.552452e-06	-1.116579e-11	1.100410e+01	-1.625956e+00
9.300000e-07	1.703065e-06	3.414508e-11	1.207168e+01	1.334926e+00
9.400000e-07	1.852963e-06	8.085100e-11	1.313418e+01	4.378159e+00
9.500000e-07	2.002135e-06	1.266574e-10	1.419155e+01	7.500019e+00
9.600000e-07	2.150626e-06	1.728653e-10	1.524408e+01	1.069297e+01
9.700000e-07	2.298394e-06	2.187416e-10	1.629149e+01	1.394554e+01
9.800000e-07	2.445302e-06	2.645352e-10	1.733281e+01	1.724260e+01
9.900000e-07	2.591234e-06	3.129413e-10	1.836720e+01	2.056597e+01
1.000000e-06	2.736223e-06	3.657551e-10	1.939492e+01	2.389539e+01
1.010000e-06	2.880235e-06	4.156852e-10	2.041570e+01	2.720965e+01
1.020000e-06	3.023146e-06	4.599286e-10	2.142869e+01	3.048786e+01
1.030000e-06	3.164849e-06	5.057420e-10	2.243310e+01	3.371065e+01
1.040000e-06	3.305214e-06	5.533842e-10	2.342804e+01	3.686121e+01
1.050000e-06	3.444193e-06	5.991726e-10	2.441315e+01	3.992600e+01
1.060000e-06	3.581870e-06	6.417250e-10	2.538904e+01	4.289518e+01
1.070000e-06	3.718257e-06	6.823948e-10	2.635577e+01	4.576260e+01
1.080000e-06	3.853243e-06	7.209888e-10	2.731259e+01	4.852547e+01
1.090000e-06	3.986871e-06	7.595285e-10	2.825977e+01	5.118377e+01
1.100000e-06	4.119113e-06	7.994058e-10	2.919713e+01	5.373944e+01
1.110000e-06	4.249853e-06	8.370775e-10	3.012384e+01	5.619561e+01
1.120000e-06	4.379091e-06	8.706547e-10	3.103991e+01	5.855574e+01
1.130000e-06	4.506813e-06	9.020121e-10	3.194522e+01	6.082308e+01
1.140000e-06	4.632993e-06	9.347654e-10	3.283962e+01	6.300023e+01
1.150000e-06	4.757637e-06	9.683947e-10	3.372312e+01	6.508905e+01
1.160000e-06	4.880563e-06	9.985837e-10	3.459444e+01	6.709069e+01
1.170000e-06	5.001686e-06	1.022817e-09	3.545298e+01	6.900589e+01
1.180000e-06	5.121078e-06	1.044704e-09	3.629926e+01	7.083540e+01
1.190000e-06	5.238654e-06	1.069802e-09	3.713266e+01	7.258028e+01
1.200000e-06	5.354215e-06	1.095714e-09	3.795178e+01	7.424230e+01
1.210000e-06	5.467619e-06	1.118478e-09	3.875562e+01	7.582410e+01
1.220000e-06	5.578968e-06	1.139304e-09	3.954488e+01	7.732918e+01
1.230000e-06	5.688364e-06	1.160241e-09	4.032030e+01	7.876174e+01
1.240000e-06	5.795762e-06	1.181717e-09	4.108156e+01	8.012636e+01
1.250000e-06	5.901026e-06	1.203614e-09	4.182770e+01	8.142758e+01
1.260000e-06	6.004090e-06	1.225490e-09	4.255823e+01	8.266952e+01
1.270000e-06	6.104969e-06	1.244432e-09	4.327329e+01	8.385550e+01
1.280000e-06	6.203552e-06	1.257482e-09	4.397206e+01	8.498781e+01
1.290000e-06	6.299768e-06	1.267547e-09	4.465406e+01	8.606772e+01
1.300000e-06	6.393744e-06	1.280968e-09	4.532018e+01	8.709559e+01
1.310000e-06	6.485505e-06	1.299111e-09	4.597060e+01	8.807121e+01
1.320000e-06	6.574889e-06	1.316186e-09	4.660418e+01	8.899426e+01
1.330000e-06	6.661874e-06	1.329091e-09	4.722074e+01	8.986471e+01
1.340000e-06	6.746591e-06	1.340686e-09	4.782123e+01	9.068335e+01
1.350000e-06	6.828962e-06	1.352819e-09	4.840510e+01	9.145201e+01
1.360000e-06	6.908803e-06	1.365551e-09	4.897103e+01	9.217369e+01
1.370000e-06	6.986083e-06	1.376830e-09	4.951880e+01	9.285252e+01
1.380000e-06	7.060786e-06	1.386226e-09	5.004831e+01	9.349336e+01
1.390000e-06	7.132855e-06	1.394800e-09	5.055915e+01	9.410141e+01
1.400000e-06	7.202376e-06	1.404080e-09	5.105193e+01	9.468159e+01
1.410000e-06	7.269359e-06	1.414943e-09	5.152672e+01	9.523802e+01
1.420000e-06	7.333712e-06	1.425988e-09	5.198287e+01	9.577352e+01
1.430000e-06	7.395544e-06	1.433484e-09	5.242115e+01	9.628935e+01
1.440000e-06	7.454847e-06	1.437748e-09	5.284150e+01	9.678515e+01
1.450000e-06	7.511498e-06	1.443651e-09	5.324306e+01	9.725916e+01
1.460000e-06	7.565405e-06	1.452689e-09	5.362516e+01	9.770863e+01
1.470000e-06	7.616265e-06	1.462255e-09	5.398566e+01	9.813043e+01
1.480000e-06	7.664073e-06	1.468820e-09	5.432454e+01	9.852173e+01
1.490000e-06	7.709219e-06	1.473686e-09	5.464454e+01	9.888060e+01
1.500000e-06	7.751639e-06	1.479113e-09	5.494522e+01	9.920652e+01
1.510000e-06	7.791166e-06	1.486480e-09	5.522540e+01	9.950058e+01
1.520000e-06	7.827989e-06	1.495151e-09	5.548641e+01	9.976547e+01
1.530000e-06	7.862063e-06	1.500254e-09	5.572793e+01	1.000051e+02
1.540000e-06	7.893297e-06	1.502092e-09	5.594933e+01	1.002241e+02
1.550000e-06	7.921838e-06	1.503863e-09	5.615163e+01	1.004269e+02
1.560000e-06	7.947524e-06	1.508045e-09	5.633370e+01	1.006171e+02
1.570000e-06	7.970242e-06	1.514039e-09	5.649473e+01	1.007964e+02
1.580000e-06	7.990211e-06	1.518139e-09	5.663627e+01	1.009646e+02
1.590000e-06	8.007338e-06	1.520277e-09	5.675767e+01	1.011192e+02
1.600000e-06	8.021424e-06	1.522740e-09	5.685751e+01	1.012554e+02
1.610000e-06	8.032360e-06	1.526436e-09	5.693503e+01	1.013670e+02
1.620000e-06	8.040205e-06	1.529111e-09	5.699064e+01	1.014468e+02
1.630000e-06	8.045217e-06	1.529303e-09	5.702616e+01	1.014884e+02
1.640000e-06	8.047380e-06	1.527122e-09	5.704150e+01	1.014867e+02
1.650000e-06	8.046716e-06	1.525190e-09	5.703679e+01	1.014393e+02
1.660000e-06	8.043397e-06	1.524638e-09	5.701326e+01	1.013470e+02
1.670000e-06	8.037371e-06	1.523850e-09	5.697055e+01	1.012142e+02
1.680000e-06	8.028665e-06	1.522449e-09	5.690884e+01	1.010490e+02
1.690000e-06	8.017259e-06	1.519353e-09	5.682799e+01	1.008621e+02
1.700000e-06	8.002987e-06	1.517055e-09	5.672683e+01	1.006658e+02
1.710000e-06	7.986096e-06	1.514621e-09	5.660711e+01	1.004730e+02
1.720000e-06	7.966917e-06	1.503358e-09	5.647116e+01	1.002951e+02
1.730000e-06	7.945253e-06	1.494206e-09	5.631760e+01	1.001409e+02
1.740000e-06	7.920459e-06	1.488774e-09	5.614185e+01	1.000149e+02
1.750000e-06	7.892012e-06	1.494542e-09	5.594022e+01	9.991725e+01
1.760000e-06	7.860153e-06	1.489115e-09	5.571440e+01	9.984277e+01
1.770000e-06	7.825673e-06	1.490232e-09	5.546999e+01	9.978179e+01
1.780000e-06	7.788874e-06	1.518623e-09	5.520915e+01	9.972097e+01
1.790000e-06	7.749772e-06	1.551980e-09	5.493199e+01	9.964473e+01
1.800000e-06	7.708560e-06	1.554716e-09	5.463987e+01	9.953695e+01
1.810000e-06	7.664912e-06	1.512085e-09	5.433048e+01	9.938277e+01
1.820000e-06	7.618545e-06	1.529297e-09	5.400183e+01	9.917024e+01
1.830000e-06	7.569510e-06	1.521538e-09	5.365425e+01	9.889162e+01
1.840000e-06	7.517544e-06	1.515841e-09	5.328591e+01	9.854416e+01
1.850000e-06	7.462644e-06	1.529956e-09	5.289677e+01	9.813025e+01
1.860000e-06	7.405026e-06	1.467585e-09	5.248836e+01	9.765704e+01
1.870000e-06	7.344743e-06	1.437771e-09	5.206106e+01	9.713537e+01
1.880000e-06	7.281705e-06	1.457004e-09	5.161423e+01	9.657844e+01
1.890000e-06	7.215844e-06	1.504620e-09	5.114740e+01	9.600014e+01
1.900000e-06	7.147197e-06	1.509088e-09	5.066081e+01	9.541346e+01
1.910000e-06	7.075730e-06	1.470039e-09	5.015424e+01	9.482900e+01
1.920000e-06	7.001594e-06	1.436985e-09	4.962875e+01	9.425397e+01
1.930000e-06	6.924727e-06	1.409879e-09	4.908390e+01	9.369159e+01
1.940000e-06	6.845095e-06	1.444333e-09	4.851945e+01	9.314110e+01
1.950000e-06	6.762966e-06	1.468630e-09	4.793730e+01	9.259820e+01
1.960000e-06	6.678323e-06	1.447593e-09	4.733734e+01	9.205600e+01
1.970000e-06	6.591159e-06	1.411660e-09	4.671950e+01	9.150616e+01
1.980000e-06	6.501592e-06	1.381750e-09	4.608463e+01	9.094020e+01
1.990000e-06	6.409839e-06	1.377406e-09	4.543427e+01	9.035065e+01
2.000000e-06	6.315831e-06	1.381788e-09	4.476792e+01	8.973196e+01
2.010000e-06	6.219459e-06	1.393986e-09	4.408481e+01	8.908112e+01
2.020000e-06	6.120902e-06	1.367936e-09	4.338622e+01	8.839774e+01
2.030000e-06	6.020154e-06	1.328690e-09	4.267210e+01	8.768381e+01
2.040000e-06	5.917179e-06	1.320859e-09	4.194219e+01	8.694308e+01
2.050000e-06	5.812138e-06	1.348765e-09	4.119764e+01	8.618022e+01
2.060000e-06	5.705172e-06	1.352111e-09	4.043944e+01	8.539985e+01
2.070000e-06	5.596228e-06	1.312137e-09	3.966722e+01	8.460574e+01
2.080000e-06	5.485273e-06	1.287083e-09	3.888075e+01	8.380006e+01
2.090000e-06	5.372334e-06	1.279935e-09	3.808021e+01	8.298302e+01
2.100000e-06	5.257325e-06	1.279851e-09	3.726501e+01	8.215284e+01
2.110000e-06	5.140221e-06	1.290726e-09	3.643495e+01	8.130600e+01
2.120000e-06	5.021126e-06	1.290019e-09	3.559078e+01	8.043777e+01
2.130000e-06	4.900205e-06	1.240695e-09	3.473367e+01	7.954297e+01
2.140000e-06	4.777559e-06	1.191690e-09	3.386433e+01	7.861669e+01
2.150000e-06	4.653165e-06	1.191244e-09	3.298260e+01	7.765501e+01
2.160000e-06	4.527020e-06	1.212235e-09	3.208846e+01	7.665550e+01
2.170000e-06	4.399222e-06	1.202194e-09	3.118260e+01	7.561750e+01
2.180000e-06	4.269863e-06	1.170615e-09	3.026568e+01	7.454206e+01
2.190000e-06	4.138989e-06	1.147068e-09	2.933801e+01	7.343167e+01
2.200000e-06	4.006555e-06	1.125847e-09	2.839929e+01	7.228976e+01
2.210000e-06	3.872586e-06	1.112973e-09	2.744969e+01	7.112000e+01
2.220000e-06	3.737142e-06	1.113875e-09	2.648964e+01	6.992570e+01
2.230000e-06	3.600240e-06	1.099391e-09	2.551925e+01	6.870918e+01
2.240000e-06	3.461942e-06	1.057591e-09	2.453896e+01	6.747140e+01
2.250000e-06	3.322282e-06	1.026282e-09	2.354902e+01	6.621172e+01
2.260000e-06	3.181374e-06	1.023840e-09	2.255024e+01	6.492798e+01
2.270000e-06	3.039253e-06	1.022881e-09	2.154285e+01	6.361678e+01
2.280000e-06	2.895920e-06	9.977557e-10	2.052688e+01	6.227394e+01
2.290000e-06	2.751435e-06	9.656787e-10	1.950274e+01	6.089500e+01
2.300000e-06	2.606060e-06	9.427262e-10	1.847229e+01	5.947578e+01
2.310000e-06	2.459918e-06	9.262406e-10	1.743641e+01	5.801283e+01
2.320000e-06	2.312864e-06	9.152352e-10	1.639406e+01	5.650374e+01
2.330000e-06	2.164895e-06	8.993723e-10	1.534522e+01	5.494723e+01
2.340000e-06	2.016181e-06	8.664515e-10	1.429111e+01	5.334308e+01
2.350000e-06	1.866863e-06	8.237759e-10	1.323272e+01	5.169190e+01
2.360000e-06	1.716989e-06	7.949340e-10	1.217038e+01	4.999473e+01
2.370000e-06	1.566618e-06	7.822608e-10	1.110451e+01	4.825269e+01
2.380000e-06	1.415755e-06	7.644318e-10	1.003517e+01	4.646658e+01
2.390000e-06	1.264392e-06	7.329481e-10	8.962273e+00	4.463664e+01
2.400000e-06	1.112547e-06	6.953747e-10	7.885965e+00	4.276244e+01
2.410000e-06	9.602771e-07	6.621238e-10	6.806643e+00	4.084286e+01
2.420000e-06	8.076800e-07	6.344300e-10	5.725003e+00	3.887628e+01
2.430000e-06	6.548320e-07	6.084018e-10	4.641585e+00	3.686088e+01
2.440000e-06	5.017707e-07	5.769417e-10	3.556654e+00	3.479484e+01
2.450000e-06	3.485545e-07	5.371947e-10	2.470627e+00	3.267669e+01
2.460000e-06	1.951414e-07	5.003051e-10	1.383203e+00	3.050540e+01
2.470000e-06	4.158890e-08	4.720039e-10	2.947907e-01	2.828042e+01
2.480000e-06	-1.119351e-07	4.453468e-10	-7.934191e-01	2.600154e+01
2.490000e-06	-2.654068e-07	4.115763e-10	-1.881258e+00	2.366865e+01
2.500000e-06	-4.188754e-07	3.685118e-10	-2.969076e+00	2.128133e+01
2.510000e-06	-5.722638e-07	3.213753e-10	-4.056324e+00	1.883853e+01
2.520000e-06	-7.254248e-07	2.770259e-10	-5.141962e+00	1.633823e+01
2.530000e-06	-8.783585e-07	2.396589e-10	-6.225987e+00	1.377731e+01
2.540000e-06	-1.031029e-06	2.034380e-10	-7.308148e+00	1.115164e+01
2.550000e-06	-1.183294e-06	1.599807e-10	-8.387436e+00	8.456321e+00
2.560000e-06	-1.335088e-06	1.114410e-10	-9.463380e+00	5.686309e+00
2.570000e-06	-1.486364e-06	6.597373e-11	-1.053566e+01	2.837134e+00
2.580000e-06	-1.637050e-06	2.233304e-11	-1.160375e+01	-9.421324e-02
2.590000e-06	-1.787082e-06	-2.372446e-11	-1.266721e+01	-3.108398e+00
2.600000e-06	-1.936526e-06	-7.362465e-11	-1.372649e+01	-6.202960e+00
2.610000e-06	-2.085352e-06	-1.259053e-10	-1.478141e+01	-9.371755e+00
2.620000e-06	-2.233360e-06	-1.794029e-10	-1.583052e+01	-1.260471e+01
2.630000e-06	-2.380444e-06	-2.328435e-10	-1.687308e+01	-1.588795e+01
2.640000e-06	-2.526621e-06	-2.840423e-10	-1.790921e+01	-1.920429e+01
2.650000e-06	-2.671897e-06	-3.359162e-10	-1.893896e+01	-2.253408e+01
2.660000e-06	-2.816142e-06	-3.900609e-10	-1.996140e+01	-2.585632e+01
2.670000e-06	-2.959249e-06	-4.441861e-10	-2.097577e+01	-2.914985e+01
2.680000e-06	-3.101173e-06	-4.943230e-10	-2.198176e+01	-3.239464e+01
2.690000e-06	-3.241922e-06	-5.429890e-10	-2.297941e+01	-3.557285e+01
2.700000e-06	-3.381401e-06	-5.918518e-10	-2.396807e+01	-3.866972e+01
2.710000e-06	-3.519537e-06	-6.401507e-10	-2.494721e+01	-4.167407e+01
2.720000e-06	-3.656370e-06	-6.874438e-10	-2.591711e+01	-4.457844e+01
2.730000e-06	-3.791875e-06	-7.337104e-10	-2.687759e+01	-4.737890e+01
2.740000e-06	-3.926020e-06	-7.789191e-10	-2.782844e+01	-5.007452e+01
2.750000e-06	-4.058802e-06	-8.215860e-10	-2.876963e+01	-5.266665e+01
2.760000e-06	-4.190160e-06	-8.608940e-10	-2.970072e+01	-5.515809e+01
2.770000e-06	-4.320071e-06	-8.971979e-10	-3.062156e+01	-5.755224e+01
2.780000e-06	-4.448523e-06	-9.321184e-10	-3.153205e+01	-5.985250e+01
2.790000e-06	-4.575405e-06	-9.663620e-10	-3.243142e+01	-6.206174e+01
2.800000e-06	-4.700711e-06	-1.001210e-09	-3.331961e+01	-6.418207e+01
2.810000e-06	-4.824440e-06	-1.035384e-09	-3.419663e+01	-6.621486e+01
2.820000e-06	-4.946466e-06	-1.066065e-09	-3.506158e+01	-6.816098e+01
2.830000e-06	-5.066622e-06	-1.095300e-09	-3.591326e+01	-7.002111e+01
2.840000e-06	-5.184837e-06	-1.123744e-09	-3.675120e+01	-7.179618e+01
2.850000e-06	-5.301007e-06	-1.150987e-09	-3.757463e+01	-7.348766e+01
2.860000e-06	-5.414991e-06	-1.177633e-09	-3.838258e+01	-7.509788e+01
2.870000e-06	-5.526819e-06	-1.202995e-09	-3.917524e+01	-7.663003e+01
2.880000e-06	-5.636617e-06	-1.226212e-09	-3.995351e+01	-7.808809e+01
2.890000e-06	-5.744475e-06	-1.247967e-09	-4.071803e+01	-7.947656e+01
2.900000e-06	-5.850314e-06	-1.270550e-09	-4.146824e+01	-8.080004e+01
2.910000e-06	-5.954048e-06	-1.290845e-09	-4.220353e+01	-8.206285e+01
2.920000e-06	-6.055572e-06	-1.308316e-09	-4.292315e+01	-8.326862e+01
2.930000e-06	-6.154906e-06	-1.326264e-09	-4.362725e+01	-8.442002e+01
2.940000e-06	-6.252065e-06	-1.343692e-09	-4.431594e+01	-8.551868e+01
