# Temperatura_=_25.33
# Concentracion g/m^3_=_15000.0
# C_Vs_to_Am_M_A/Vsm_=_65563218390.804596
# pendiente_HvsI_1/m_=_3716.3
# ordenada_HvsI_A/m_=_1297.0
# frecuencia_Hz_=_302384.0612135559

Tiempo_(s)	Campo_(V.s)	Magnetizacion_(V.s)	Campo_(kA/m)	Magnetizacion_(A/m)
0.000000e+00	-8.022190e-06	-1.587223e-09	-5.691333e+01	-1.035539e+02
1.000000e-08	-8.018000e-06	-1.588005e-09	-5.688361e+01	-1.034886e+02
2.000000e-08	-8.011137e-06	-1.586400e-09	-5.683492e+01	-1.033930e+02
3.000000e-08	-8.001513e-06	-1.585963e-09	-5.676664e+01	-1.032734e+02
4.000000e-08	-7.989014e-06	-1.587171e-09	-5.667797e+01	-1.031379e+02
5.000000e-08	-7.973590e-06	-1.585741e-09	-5.656854e+01	-1.029949e+02
6.000000e-08	-7.955511e-06	-1.582206e-09	-5.644028e+01	-1.028527e+02
7.000000e-08	-7.935095e-06	-1.584797e-09	-5.629544e+01	-1.027178e+02
8.000000e-08	-7.912029e-06	-1.576701e-09	-5.613180e+01	-1.025944e+02
9.000000e-08	-7.885813e-06	-1.584431e-09	-5.594581e+01	-1.024834e+02
1.000000e-07	-7.856389e-06	-1.589127e-09	-5.573706e+01	-1.023820e+02
1.100000e-07	-7.824105e-06	-1.577188e-09	-5.550802e+01	-1.022841e+02
1.200000e-07	-7.789180e-06	-1.564777e-09	-5.526025e+01	-1.021808e+02
1.300000e-07	-7.751779e-06	-1.538169e-09	-5.499491e+01	-1.020608e+02
1.400000e-07	-7.712107e-06	-1.519700e-09	-5.471345e+01	-1.019126e+02
1.500000e-07	-7.670169e-06	-1.511629e-09	-5.441593e+01	-1.017248e+02
1.600000e-07	-7.625631e-06	-1.557970e-09	-5.409996e+01	-1.014883e+02
1.700000e-07	-7.578309e-06	-1.568365e-09	-5.376423e+01	-1.011968e+02
1.800000e-07	-7.528139e-06	-1.502737e-09	-5.340829e+01	-1.008477e+02
1.900000e-07	-7.474950e-06	-1.531979e-09	-5.303095e+01	-1.004425e+02
2.000000e-07	-7.418960e-06	-1.534625e-09	-5.263373e+01	-9.998647e+01
2.100000e-07	-7.360291e-06	-1.533311e-09	-5.221750e+01	-9.948820e+01
2.200000e-07	-7.298948e-06	-1.556384e-09	-5.178230e+01	-9.895827e+01
2.300000e-07	-7.234962e-06	-1.492790e-09	-5.132836e+01	-9.840817e+01
2.400000e-07	-7.168171e-06	-1.448291e-09	-5.085451e+01	-9.784893e+01
2.500000e-07	-7.098635e-06	-1.439218e-09	-5.036119e+01	-9.728983e+01
2.600000e-07	-7.026409e-06	-1.483418e-09	-4.984878e+01	-9.673743e+01
2.700000e-07	-6.951359e-06	-1.486416e-09	-4.931634e+01	-9.619492e+01
2.800000e-07	-6.873490e-06	-1.459944e-09	-4.876389e+01	-9.566200e+01
2.900000e-07	-6.792929e-06	-1.433380e-09	-4.819236e+01	-9.513505e+01
3.000000e-07	-6.709922e-06	-1.401266e-09	-4.760347e+01	-9.460789e+01
3.100000e-07	-6.624621e-06	-1.414619e-09	-4.699830e+01	-9.407266e+01
3.200000e-07	-6.536949e-06	-1.421476e-09	-4.637631e+01	-9.352096e+01
3.300000e-07	-6.446904e-06	-1.421125e-09	-4.573749e+01	-9.294494e+01
3.400000e-07	-6.354585e-06	-1.400779e-09	-4.508253e+01	-9.233828e+01
3.500000e-07	-6.259979e-06	-1.387543e-09	-4.441135e+01	-9.169682e+01
3.600000e-07	-6.163015e-06	-1.384832e-09	-4.372344e+01	-9.101895e+01
3.700000e-07	-6.063742e-06	-1.374848e-09	-4.301915e+01	-9.030552e+01
3.800000e-07	-5.962325e-06	-1.369222e-09	-4.229965e+01	-8.955948e+01
3.900000e-07	-5.858848e-06	-1.352623e-09	-4.156553e+01	-8.878522e+01
4.000000e-07	-5.753302e-06	-1.324434e-09	-4.081673e+01	-8.798773e+01
4.100000e-07	-5.645711e-06	-1.298119e-09	-4.005343e+01	-8.717175e+01
4.200000e-07	-5.536144e-06	-1.306431e-09	-3.927611e+01	-8.634104e+01
4.300000e-07	-5.424584e-06	-1.305575e-09	-3.848465e+01	-8.549777e+01
4.400000e-07	-5.310932e-06	-1.270707e-09	-3.767835e+01	-8.464226e+01
4.500000e-07	-5.195205e-06	-1.239341e-09	-3.685732e+01	-8.377297e+01
4.600000e-07	-5.077582e-06	-1.237517e-09	-3.602285e+01	-8.288680e+01
4.700000e-07	-4.958137e-06	-1.234033e-09	-3.517545e+01	-8.197956e+01
4.800000e-07	-4.836898e-06	-1.218706e-09	-3.431532e+01	-8.104666e+01
4.900000e-07	-4.713880e-06	-1.207956e-09	-3.344257e+01	-8.008371e+01
5.000000e-07	-4.589109e-06	-1.187539e-09	-3.255738e+01	-7.908719e+01
5.100000e-07	-4.462717e-06	-1.159614e-09	-3.166070e+01	-7.805476e+01
5.200000e-07	-4.334681e-06	-1.147058e-09	-3.075234e+01	-7.698559e+01
5.300000e-07	-4.205016e-06	-1.150448e-09	-2.983244e+01	-7.588021e+01
5.400000e-07	-4.073799e-06	-1.131308e-09	-2.890152e+01	-7.474030e+01
5.500000e-07	-3.941033e-06	-1.097079e-09	-2.795961e+01	-7.356826e+01
5.600000e-07	-3.806738e-06	-1.076729e-09	-2.700686e+01	-7.236665e+01
5.700000e-07	-3.670988e-06	-1.065553e-09	-2.604378e+01	-7.113766e+01
5.800000e-07	-3.533898e-06	-1.042718e-09	-2.507120e+01	-6.988265e+01
5.900000e-07	-3.395454e-06	-1.020666e-09	-2.408901e+01	-6.860184e+01
6.000000e-07	-3.255487e-06	-1.005285e-09	-2.309601e+01	-6.729415e+01
6.100000e-07	-3.114055e-06	-9.789940e-10	-2.209262e+01	-6.595733e+01
6.200000e-07	-2.971394e-06	-9.489753e-10	-2.108052e+01	-6.458817e+01
6.300000e-07	-2.827621e-06	-9.313693e-10	-2.006053e+01	-6.318293e+01
6.400000e-07	-2.682826e-06	-9.181774e-10	-1.903328e+01	-6.173776e+01
6.500000e-07	-2.537129e-06	-8.888819e-10	-1.799963e+01	-6.024921e+01
6.600000e-07	-2.390599e-06	-8.554852e-10	-1.696008e+01	-5.871453e+01
6.700000e-07	-2.243275e-06	-8.298463e-10	-1.591489e+01	-5.713197e+01
6.800000e-07	-2.095130e-06	-8.086191e-10	-1.486388e+01	-5.550085e+01
6.900000e-07	-1.946286e-06	-7.860282e-10	-1.380791e+01	-5.382142e+01
7.000000e-07	-1.796885e-06	-7.636444e-10	-1.274798e+01	-5.209471e+01
7.100000e-07	-1.646891e-06	-7.409758e-10	-1.168385e+01	-5.032216e+01
7.200000e-07	-1.496362e-06	-7.112999e-10	-1.061592e+01	-4.850522e+01
7.300000e-07	-1.345348e-06	-6.813170e-10	-9.544559e+00	-4.664509e+01
7.400000e-07	-1.193859e-06	-6.518344e-10	-8.469817e+00	-4.474237e+01
7.500000e-07	-1.041952e-06	-6.215251e-10	-7.392118e+00	-4.279691e+01
7.600000e-07	-8.897179e-07	-5.895050e-10	-6.312093e+00	-4.080780e+01
7.700000e-07	-7.372040e-07	-5.578306e-10	-5.230085e+00	-3.877344e+01
7.800000e-07	-5.844045e-07	-5.277536e-10	-4.146051e+00	-3.669165e+01
7.900000e-07	-4.313871e-07	-4.986759e-10	-3.060471e+00	-3.455994e+01
8.000000e-07	-2.782291e-07	-4.693028e-10	-1.973893e+00	-3.237570e+01
8.100000e-07	-1.249590e-07	-4.347034e-10	-8.865202e-01	-3.013632e+01
8.200000e-07	2.843905e-08	-3.958413e-10	2.017605e-01	-2.783930e+01
8.300000e-07	1.819575e-07	-3.581345e-10	1.290895e+00	-2.548221e+01
8.400000e-07	3.354202e-07	-3.230949e-10	2.379635e+00	-2.306265e+01
8.500000e-07	4.887341e-07	-2.873320e-10	3.467319e+00	-2.057807e+01
8.600000e-07	6.419043e-07	-2.519317e-10	4.553983e+00	-1.802566e+01
8.700000e-07	7.948272e-07	-2.148777e-10	5.638892e+00	-1.540228e+01
8.800000e-07	9.474764e-07	-1.753874e-10	6.721861e+00	-1.270452e+01
8.900000e-07	1.099855e-06	-1.345850e-10	7.802912e+00	-9.928829e+00
9.000000e-07	1.251850e-06	-9.389062e-11	8.881233e+00	-7.071915e+00
9.100000e-07	1.403408e-06	-5.424259e-11	9.956460e+00	-4.131200e+00
9.200000e-07	1.554512e-06	-1.026555e-11	1.102847e+01	-1.105429e+00
9.300000e-07	1.704994e-06	3.752972e-11	1.209606e+01	2.004701e+00
9.400000e-07	1.854796e-06	8.728111e-11	1.315883e+01	5.195944e+00
9.500000e-07	2.003918e-06	1.363181e-10	1.421677e+01	8.462040e+00
9.600000e-07	2.152271e-06	1.844961e-10	1.526926e+01	1.179345e+01
9.700000e-07	2.299811e-06	2.322107e-10	1.631598e+01	1.517736e+01
9.800000e-07	2.446474e-06	2.796209e-10	1.735648e+01	1.859798e+01
9.900000e-07	2.592203e-06	3.299941e-10	1.839035e+01	2.203710e+01
1.000000e-06	2.737013e-06	3.840114e-10	1.941770e+01	2.547492e+01
1.010000e-06	2.880842e-06	4.356993e-10	2.043810e+01	2.889103e+01
1.020000e-06	3.023554e-06	4.829086e-10	2.145057e+01	3.226547e+01
1.030000e-06	3.165081e-06	5.317200e-10	2.245463e+01	3.557971e+01
1.040000e-06	3.305335e-06	5.825244e-10	2.344966e+01	3.881754e+01
1.050000e-06	3.444299e-06	6.303207e-10	2.443554e+01	4.196569e+01
1.060000e-06	3.581918e-06	6.731231e-10	2.541188e+01	4.501420e+01
1.070000e-06	3.718113e-06	7.133750e-10	2.637811e+01	4.795646e+01
1.080000e-06	3.852918e-06	7.524790e-10	2.733448e+01	5.078898e+01
1.090000e-06	3.986373e-06	7.912248e-10	2.828128e+01	5.351090e+01
1.100000e-06	4.118432e-06	8.315745e-10	2.921817e+01	5.612340e+01
1.110000e-06	4.249019e-06	8.714738e-10	3.014462e+01	5.862894e+01
1.120000e-06	4.378106e-06	9.077721e-10	3.106042e+01	6.103068e+01
1.130000e-06	4.505635e-06	9.409025e-10	3.196518e+01	6.333185e+01
1.140000e-06	4.631632e-06	9.744833e-10	3.285906e+01	6.553542e+01
1.150000e-06	4.756076e-06	1.008829e-09	3.374192e+01	6.764385e+01
1.160000e-06	4.878845e-06	1.039655e-09	3.461291e+01	6.965915e+01
1.170000e-06	4.999933e-06	1.065294e-09	3.547197e+01	7.158299e+01
1.180000e-06	5.119220e-06	1.087088e-09	3.631825e+01	7.341694e+01
1.190000e-06	5.236580e-06	1.109776e-09	3.715086e+01	7.516282e+01
1.200000e-06	5.351955e-06	1.134013e-09	3.796938e+01	7.682288e+01
1.210000e-06	5.465248e-06	1.158982e-09	3.877314e+01	7.840002e+01
1.220000e-06	5.576481e-06	1.182860e-09	3.956228e+01	7.989781e+01
1.230000e-06	5.685718e-06	1.205183e-09	4.033726e+01	8.132041e+01
1.240000e-06	5.792951e-06	1.226225e-09	4.109802e+01	8.267234e+01
1.250000e-06	5.898091e-06	1.246915e-09	4.184394e+01	8.395821e+01
1.260000e-06	6.001063e-06	1.267346e-09	4.257447e+01	8.518239e+01
1.270000e-06	6.101824e-06	1.284233e-09	4.328932e+01	8.634877e+01
1.280000e-06	6.200278e-06	1.297337e-09	4.398780e+01	8.746048e+01
1.290000e-06	6.296360e-06	1.309850e-09	4.466945e+01	8.851989e+01
1.300000e-06	6.390183e-06	1.325389e-09	4.533508e+01	8.952860e+01
1.310000e-06	6.481784e-06	1.343223e-09	4.598495e+01	9.048768e+01
1.320000e-06	6.571035e-06	1.358735e-09	4.661813e+01	9.139786e+01
1.330000e-06	6.657923e-06	1.371140e-09	4.723456e+01	9.225993e+01
1.340000e-06	6.742517e-06	1.384117e-09	4.783471e+01	9.307498e+01
1.350000e-06	6.824719e-06	1.397202e-09	4.841789e+01	9.384464e+01
1.360000e-06	6.904424e-06	1.409447e-09	4.898336e+01	9.457120e+01
1.370000e-06	6.981590e-06	1.420915e-09	4.953081e+01	9.525757e+01
1.380000e-06	7.056146e-06	1.429953e-09	5.005975e+01	9.590711e+01
1.390000e-06	7.128118e-06	1.437835e-09	5.057035e+01	9.652333e+01
1.400000e-06	7.197537e-06	1.446606e-09	5.106285e+01	9.710959e+01
1.410000e-06	7.264387e-06	1.458397e-09	5.153711e+01	9.766867e+01
1.420000e-06	7.328625e-06	1.471412e-09	5.199285e+01	9.820253e+01
1.430000e-06	7.390384e-06	1.481479e-09	5.243100e+01	9.871211e+01
1.440000e-06	7.449662e-06	1.488124e-09	5.285154e+01	9.919733e+01
1.450000e-06	7.506251e-06	1.493500e-09	5.325302e+01	9.965721e+01
1.460000e-06	7.560068e-06	1.500675e-09	5.363481e+01	1.000902e+02
1.470000e-06	7.610888e-06	1.508501e-09	5.399536e+01	1.004946e+02
1.480000e-06	7.658642e-06	1.514543e-09	5.433415e+01	1.008688e+02
1.490000e-06	7.703617e-06	1.519547e-09	5.465322e+01	1.012123e+02
1.500000e-06	7.745848e-06	1.525383e-09	5.495283e+01	1.015251e+02
1.510000e-06	7.785212e-06	1.532542e-09	5.523209e+01	1.018088e+02
1.520000e-06	7.821854e-06	1.540146e-09	5.549205e+01	1.020659e+02
1.530000e-06	7.855843e-06	1.544759e-09	5.573319e+01	1.022996e+02
1.540000e-06	7.887041e-06	1.546427e-09	5.595452e+01	1.025137e+02
1.550000e-06	7.915483e-06	1.548660e-09	5.615630e+01	1.027117e+02
1.560000e-06	7.941077e-06	1.552718e-09	5.633788e+01	1.028965e+02
1.570000e-06	7.963719e-06	1.557808e-09	5.649852e+01	1.030695e+02
1.580000e-06	7.983607e-06	1.561570e-09	5.663961e+01	1.032307e+02
1.590000e-06	8.000623e-06	1.563575e-09	5.676033e+01	1.033783e+02
1.600000e-06	8.014586e-06	1.565540e-09	5.685939e+01	1.035090e+02
1.610000e-06	8.025441e-06	1.568119e-09	5.693640e+01	1.036183e+02
1.620000e-06	8.033219e-06	1.571623e-09	5.699158e+01	1.037013e+02
1.630000e-06	8.038161e-06	1.573510e-09	5.702664e+01	1.037535e+02
1.640000e-06	8.040255e-06	1.571853e-09	5.704150e+01	1.037713e+02
1.650000e-06	8.039505e-06	1.570194e-09	5.703617e+01	1.037532e+02
1.660000e-06	8.036127e-06	1.568285e-09	5.701221e+01	1.036997e+02
1.670000e-06	8.030092e-06	1.566393e-09	5.696940e+01	1.036142e+02
1.680000e-06	8.021337e-06	1.565042e-09	5.690728e+01	1.035023e+02
1.690000e-06	8.009862e-06	1.563583e-09	5.682587e+01	1.033715e+02
1.700000e-06	7.995559e-06	1.563780e-09	5.672440e+01	1.032301e+02
1.710000e-06	7.978659e-06	1.562970e-09	5.660451e+01	1.030867e+02
1.720000e-06	7.959460e-06	1.552196e-09	5.646830e+01	1.029485e+02
1.730000e-06	7.937753e-06	1.554401e-09	5.631430e+01	1.028207e+02
1.740000e-06	7.912927e-06	1.536631e-09	5.613817e+01	1.027053e+02
1.750000e-06	7.884476e-06	1.537859e-09	5.593632e+01	1.026009e+02
1.760000e-06	7.852643e-06	1.536248e-09	5.571048e+01	1.025027e+02
1.770000e-06	7.818121e-06	1.533932e-09	5.546557e+01	1.024024e+02
1.780000e-06	7.781215e-06	1.551705e-09	5.520374e+01	1.022896e+02
1.790000e-06	7.742063e-06	1.604548e-09	5.492598e+01	1.021528e+02
1.800000e-06	7.700872e-06	1.609141e-09	5.463375e+01	1.019803e+02
1.810000e-06	7.657290e-06	1.539098e-09	5.432456e+01	1.017620e+02
1.820000e-06	7.611010e-06	1.581447e-09	5.399622e+01	1.014906e+02
1.830000e-06	7.561981e-06	1.540961e-09	5.364839e+01	1.011620e+02
1.840000e-06	7.509964e-06	1.537314e-09	5.327935e+01	1.007763e+02
1.850000e-06	7.455055e-06	1.546795e-09	5.288980e+01	1.003376e+02
1.860000e-06	7.397415e-06	1.481711e-09	5.248088e+01	9.985320e+01
1.870000e-06	7.337136e-06	1.502536e-09	5.205323e+01	9.933321e+01
1.880000e-06	7.274185e-06	1.490840e-09	5.160663e+01	9.878894e+01
1.890000e-06	7.208374e-06	1.542442e-09	5.113973e+01	9.823172e+01
1.900000e-06	7.139742e-06	1.541559e-09	5.065282e+01	9.767160e+01
1.910000e-06	7.068265e-06	1.482849e-09	5.014572e+01	9.711619e+01
1.920000e-06	6.994052e-06	1.461810e-09	4.961922e+01	9.656994e+01
1.930000e-06	6.917177e-06	1.439392e-09	4.907384e+01	9.603379e+01
1.940000e-06	6.837587e-06	1.503845e-09	4.850918e+01	9.550524e+01
1.950000e-06	6.755438e-06	1.510535e-09	4.792638e+01	9.497893e+01
1.960000e-06	6.670846e-06	1.487526e-09	4.732624e+01	9.444748e+01
1.970000e-06	6.583748e-06	1.442804e-09	4.670832e+01	9.390255e+01
1.980000e-06	6.494166e-06	1.395198e-09	4.607278e+01	9.333598e+01
1.990000e-06	6.402379e-06	1.407503e-09	4.542160e+01	9.274080e+01
2.000000e-06	6.308367e-06	1.418639e-09	4.475464e+01	9.211202e+01
2.010000e-06	6.212053e-06	1.444387e-09	4.407134e+01	9.144712e+01
2.020000e-06	6.113531e-06	1.398478e-09	4.337238e+01	9.074608e+01
2.030000e-06	6.012841e-06	1.348525e-09	4.265803e+01	9.001118e+01
2.040000e-06	5.909963e-06	1.336756e-09	4.192816e+01	8.924638e+01
2.050000e-06	5.804960e-06	1.369580e-09	4.118322e+01	8.845654e+01
2.060000e-06	5.697951e-06	1.384767e-09	4.042405e+01	8.764661e+01
2.070000e-06	5.588959e-06	1.354077e-09	3.965080e+01	8.682076e+01
2.080000e-06	5.478016e-06	1.332954e-09	3.886372e+01	8.598177e+01
2.090000e-06	5.365050e-06	1.312451e-09	3.806229e+01	8.513066e+01
2.100000e-06	5.250053e-06	1.306127e-09	3.724644e+01	8.426651e+01
2.110000e-06	5.133120e-06	1.306819e-09	3.641686e+01	8.338674e+01
2.120000e-06	5.014182e-06	1.304242e-09	3.557305e+01	8.248748e+01
2.130000e-06	4.893294e-06	1.257315e-09	3.471542e+01	8.156421e+01
2.140000e-06	4.770647e-06	1.219631e-09	3.384530e+01	8.061239e+01
2.150000e-06	4.646350e-06	1.224230e-09	3.296348e+01	7.962813e+01
2.160000e-06	4.520406e-06	1.242818e-09	3.206997e+01	7.860864e+01
2.170000e-06	4.392718e-06	1.225667e-09	3.116409e+01	7.755254e+01
2.180000e-06	4.263403e-06	1.186156e-09	3.024666e+01	7.645988e+01
2.190000e-06	4.132542e-06	1.159571e-09	2.931827e+01	7.533199e+01
2.200000e-06	4.000073e-06	1.142319e-09	2.837847e+01	7.417107e+01
2.210000e-06	3.866155e-06	1.139052e-09	2.742839e+01	7.297968e+01
2.220000e-06	3.730841e-06	1.139934e-09	2.646841e+01	7.176020e+01
2.230000e-06	3.594042e-06	1.119851e-09	2.549789e+01	7.051433e+01
2.240000e-06	3.455784e-06	1.072213e-09	2.451702e+01	6.924273e+01
2.250000e-06	3.316208e-06	1.041861e-09	2.352680e+01	6.794477e+01
2.260000e-06	3.175393e-06	1.041446e-09	2.252779e+01	6.661862e+01
2.270000e-06	3.033366e-06	1.042050e-09	2.152018e+01	6.526136e+01
2.280000e-06	2.890175e-06	1.016580e-09	2.050431e+01	6.386939e+01
2.290000e-06	2.745774e-06	9.818496e-10	1.947987e+01	6.243884e+01
2.300000e-06	2.600359e-06	9.532066e-10	1.844822e+01	6.096608e+01
2.310000e-06	2.454143e-06	9.336138e-10	1.741089e+01	5.944807e+01
2.320000e-06	2.307163e-06	9.230441e-10	1.636814e+01	5.788268e+01
2.330000e-06	2.159398e-06	9.088099e-10	1.531983e+01	5.626885e+01
2.340000e-06	2.010859e-06	8.782902e-10	1.426601e+01	5.460653e+01
2.350000e-06	1.861571e-06	8.372004e-10	1.320689e+01	5.289650e+01
2.360000e-06	1.711647e-06	8.070183e-10	1.214326e+01	5.114008e+01
2.370000e-06	1.561288e-06	7.893304e-10	1.107654e+01	4.933877e+01
2.380000e-06	1.410526e-06	7.666291e-10	1.000696e+01	4.749390e+01
2.390000e-06	1.259365e-06	7.320793e-10	8.934552e+00	4.560630e+01
2.400000e-06	1.107757e-06	6.938949e-10	7.858971e+00	4.367611e+01
2.410000e-06	9.556714e-07	6.620300e-10	6.780000e+00	4.170268e+01
2.420000e-06	8.032015e-07	6.378254e-10	5.698304e+00	3.968464e+01
2.430000e-06	6.504730e-07	6.122039e-10	4.614773e+00	3.762000e+01
2.440000e-06	4.975751e-07	5.777745e-10	3.530041e+00	3.550636e+01
2.450000e-06	3.444860e-07	5.369189e-10	2.443952e+00	3.334112e+01
2.460000e-06	1.911781e-07	5.014269e-10	1.356311e+00	3.112166e+01
2.470000e-06	3.777002e-08	4.745498e-10	2.679590e-01	2.884544e+01
2.480000e-06	-1.155969e-07	4.468086e-10	-8.201012e-01	2.651002e+01
2.490000e-06	-2.689546e-07	4.096071e-10	-1.908095e+00	2.411299e+01
2.500000e-06	-4.223054e-07	3.622372e-10	-2.996041e+00	2.165187e+01
2.510000e-06	-5.755171e-07	3.124293e-10	-4.082999e+00	1.912397e+01
2.520000e-06	-7.284538e-07	2.675399e-10	-5.168007e+00	1.652625e+01
2.530000e-06	-8.811099e-07	2.300188e-10	-6.251024e+00	1.385540e+01
2.540000e-06	-1.033490e-06	1.936823e-10	-7.332083e+00	1.110788e+01
2.550000e-06	-1.185506e-06	1.489809e-10	-8.410562e+00	8.280254e+00
2.560000e-06	-1.337065e-06	9.822968e-11	-9.485789e+00	5.369632e+00
2.570000e-06	-1.488145e-06	4.933517e-11	-1.055763e+01	2.374210e+00
2.580000e-06	-1.638747e-06	2.766576e-12	-1.162607e+01	-7.060831e-01
2.590000e-06	-1.788739e-06	-4.585635e-11	-1.269019e+01	-3.868974e+00
2.600000e-06	-1.938058e-06	-9.752777e-11	-1.374953e+01	-7.109321e+00
2.610000e-06	-2.086696e-06	-1.512055e-10	-1.480404e+01	-1.041877e+01
2.620000e-06	-2.234557e-06	-2.064124e-10	-1.585304e+01	-1.378566e+01
2.630000e-06	-2.381513e-06	-2.602425e-10	-1.689562e+01	-1.719521e+01
2.640000e-06	-2.527572e-06	-3.119631e-10	-1.793183e+01	-2.063000e+01
2.650000e-06	-2.672739e-06	-3.651702e-10	-1.896171e+01	-2.407068e+01
2.660000e-06	-2.816823e-06	-4.210907e-10	-1.998392e+01	-2.749694e+01
2.670000e-06	-2.959770e-06	-4.764535e-10	-2.099805e+01	-3.088855e+01
2.680000e-06	-3.101583e-06	-5.276462e-10	-2.200415e+01	-3.422635e+01
2.690000e-06	-3.242194e-06	-5.776452e-10	-2.300171e+01	-3.749322e+01
2.700000e-06	-3.381528e-06	-6.287807e-10	-2.399021e+01	-4.067478e+01
2.710000e-06	-3.519547e-06	-6.790260e-10	-2.496939e+01	-4.375986e+01
2.720000e-06	-3.656263e-06	-7.266806e-10	-2.593932e+01	-4.674069e+01
2.730000e-06	-3.791605e-06	-7.722737e-10	-2.689950e+01	-4.961269e+01
2.740000e-06	-3.925564e-06	-8.154405e-10	-2.784987e+01	-5.237413e+01
2.750000e-06	-4.058133e-06	-8.555910e-10	-2.879038e+01	-5.502554e+01
2.760000e-06	-4.189247e-06	-8.947268e-10	-2.972056e+01	-5.756900e+01
2.770000e-06	-4.318942e-06	-9.335892e-10	-3.064068e+01	-6.000750e+01
2.780000e-06	-4.447207e-06	-9.714083e-10	-3.155066e+01	-6.234429e+01
2.790000e-06	-4.573998e-06	-1.007543e-09	-3.245018e+01	-6.458247e+01
2.800000e-06	-4.699224e-06	-1.041141e-09	-3.333859e+01	-6.672469e+01
2.810000e-06	-4.822711e-06	-1.073516e-09	-3.421467e+01	-6.877311e+01
2.820000e-06	-4.944455e-06	-1.104285e-09	-3.507838e+01	-7.072949e+01
2.830000e-06	-5.064417e-06	-1.133386e-09	-3.592945e+01	-7.259542e+01
2.840000e-06	-5.182510e-06	-1.160383e-09	-3.676726e+01	-7.437258e+01
2.850000e-06	-5.298557e-06	-1.185585e-09	-3.759056e+01	-7.606306e+01
2.860000e-06	-5.412411e-06	-1.211028e-09	-3.839829e+01	-7.766950e+01
2.870000e-06	-5.524121e-06	-1.236095e-09	-3.919081e+01	-7.919525e+01
2.880000e-06	-5.633697e-06	-1.260440e-09	-3.996820e+01	-8.064426e+01
2.890000e-06	-5.741292e-06	-1.283525e-09	-4.073153e+01	-8.202096e+01
2.900000e-06	-5.846984e-06	-1.305117e-09	-4.148136e+01	-8.332996e+01
2.910000e-06	-5.950589e-06	-1.324399e-09	-4.221639e+01	-8.457576e+01
2.920000e-06	-6.051972e-06	-1.340702e-09	-4.293565e+01	-8.576244e+01
2.930000e-06	-6.151113e-06	-1.356116e-09	-4.363900e+01	-8.689343e+01
2.940000e-06	-6.248082e-06	-1.374704e-09	-4.432695e+01	-8.797136e+01
