# Temperatura_=_28.22
# Concentracion g/m^3_=_15000.0
# C_Vs_to_Am_M_A/Vsm_=_65563218390.804596
# pendiente_HvsI_1/m_=_3716.3
# ordenada_HvsI_A/m_=_1297.0
# frecuencia_Hz_=_302384.5293948096

Tiempo_(s)	Campo_(V.s)	Magnetizacion_(V.s)	Campo_(kA/m)	Magnetizacion_(A/m)
0.000000e+00	-8.011931e-06	-1.639594e-09	-5.691529e+01	-1.071892e+02
1.000000e-08	-8.007672e-06	-1.642196e-09	-5.688503e+01	-1.071452e+02
2.000000e-08	-8.000842e-06	-1.642026e-09	-5.683651e+01	-1.070756e+02
3.000000e-08	-7.991269e-06	-1.641292e-09	-5.676850e+01	-1.069832e+02
4.000000e-08	-7.978826e-06	-1.639960e-09	-5.668011e+01	-1.068714e+02
5.000000e-08	-7.963389e-06	-1.637783e-09	-5.657045e+01	-1.067436e+02
6.000000e-08	-7.945233e-06	-1.636484e-09	-5.644147e+01	-1.066032e+02
7.000000e-08	-7.924829e-06	-1.634953e-09	-5.629653e+01	-1.064530e+02
8.000000e-08	-7.901891e-06	-1.628382e-09	-5.613358e+01	-1.062941e+02
9.000000e-08	-7.875791e-06	-1.640315e-09	-5.594817e+01	-1.061265e+02
1.000000e-07	-7.846435e-06	-1.632529e-09	-5.573963e+01	-1.059482e+02
1.100000e-07	-7.814195e-06	-1.614823e-09	-5.551061e+01	-1.057560e+02
1.200000e-07	-7.779237e-06	-1.612579e-09	-5.526227e+01	-1.055450e+02
1.300000e-07	-7.741732e-06	-1.611576e-09	-5.499584e+01	-1.053101e+02
1.400000e-07	-7.702064e-06	-1.602483e-09	-5.471404e+01	-1.050457e+02
1.500000e-07	-7.660231e-06	-1.574606e-09	-5.441687e+01	-1.047470e+02
1.600000e-07	-7.615808e-06	-1.609961e-09	-5.410130e+01	-1.044106e+02
1.700000e-07	-7.568609e-06	-1.582075e-09	-5.376601e+01	-1.040345e+02
1.800000e-07	-7.518560e-06	-1.550461e-09	-5.341047e+01	-1.036191e+02
1.900000e-07	-7.465468e-06	-1.592977e-09	-5.303331e+01	-1.031667e+02
2.000000e-07	-7.409514e-06	-1.558215e-09	-5.263583e+01	-1.026815e+02
2.100000e-07	-7.350877e-06	-1.571077e-09	-5.221928e+01	-1.021694e+02
2.200000e-07	-7.289553e-06	-1.587683e-09	-5.178364e+01	-1.016368e+02
2.300000e-07	-7.225572e-06	-1.548034e-09	-5.132913e+01	-1.010904e+02
2.400000e-07	-7.158829e-06	-1.528665e-09	-5.085500e+01	-1.005362e+02
2.500000e-07	-7.089403e-06	-1.514654e-09	-5.036182e+01	-9.997868e+01
2.600000e-07	-7.017311e-06	-1.519818e-09	-4.984969e+01	-9.942067e+01
2.700000e-07	-6.942401e-06	-1.508498e-09	-4.931754e+01	-9.886284e+01
2.800000e-07	-6.864679e-06	-1.505789e-09	-4.876542e+01	-9.830375e+01
2.900000e-07	-6.784214e-06	-1.490075e-09	-4.819381e+01	-9.774012e+01
3.000000e-07	-6.701261e-06	-1.468251e-09	-4.760453e+01	-9.716731e+01
3.100000e-07	-6.616053e-06	-1.467060e-09	-4.699923e+01	-9.657998e+01
3.200000e-07	-6.528554e-06	-1.448081e-09	-4.637765e+01	-9.597274e+01
3.300000e-07	-6.438701e-06	-1.451948e-09	-4.573935e+01	-9.534087e+01
3.400000e-07	-6.346527e-06	-1.449221e-09	-4.508456e+01	-9.468086e+01
3.500000e-07	-6.252065e-06	-1.438035e-09	-4.441352e+01	-9.399077e+01
3.600000e-07	-6.155296e-06	-1.427047e-09	-4.372609e+01	-9.327038e+01
3.700000e-07	-6.056273e-06	-1.412267e-09	-4.302265e+01	-9.252107e+01
3.800000e-07	-5.955068e-06	-1.396715e-09	-4.230371e+01	-9.174550e+01
3.900000e-07	-5.851719e-06	-1.377922e-09	-4.156954e+01	-9.094715e+01
4.000000e-07	-5.746332e-06	-1.366167e-09	-4.082089e+01	-9.012967e+01
4.100000e-07	-5.638936e-06	-1.350001e-09	-4.005796e+01	-8.929638e+01
4.200000e-07	-5.529524e-06	-1.343923e-09	-3.928072e+01	-8.844965e+01
4.300000e-07	-5.418088e-06	-1.333917e-09	-3.848910e+01	-8.759059e+01
4.400000e-07	-5.304590e-06	-1.318168e-09	-3.768283e+01	-8.671885e+01
4.500000e-07	-5.189060e-06	-1.297775e-09	-3.686213e+01	-8.583260e+01
4.600000e-07	-5.071548e-06	-1.280773e-09	-3.602734e+01	-8.492879e+01
4.700000e-07	-4.952193e-06	-1.269517e-09	-3.517947e+01	-8.400349e+01
4.800000e-07	-4.831079e-06	-1.255019e-09	-3.431910e+01	-8.305235e+01
4.900000e-07	-4.708181e-06	-1.238293e-09	-3.344605e+01	-8.207114e+01
5.000000e-07	-4.583610e-06	-1.219666e-09	-3.256112e+01	-8.105615e+01
5.100000e-07	-4.457359e-06	-1.204059e-09	-3.166426e+01	-8.000458e+01
5.200000e-07	-4.329460e-06	-1.187976e-09	-3.075569e+01	-7.891477e+01
5.300000e-07	-4.199993e-06	-1.174449e-09	-2.983598e+01	-7.778616e+01
5.400000e-07	-4.068994e-06	-1.157925e-09	-2.890538e+01	-7.661925e+01
5.500000e-07	-3.936452e-06	-1.138038e-09	-2.796383e+01	-7.541532e+01
5.600000e-07	-3.802335e-06	-1.116575e-09	-2.701109e+01	-7.417606e+01
5.700000e-07	-3.666793e-06	-1.097545e-09	-2.604822e+01	-7.290321e+01
5.800000e-07	-3.529885e-06	-1.077780e-09	-2.507566e+01	-7.159824e+01
5.900000e-07	-3.391530e-06	-1.053634e-09	-2.409280e+01	-7.026201e+01
6.000000e-07	-3.251704e-06	-1.030552e-09	-2.309950e+01	-6.889466e+01
6.100000e-07	-3.110555e-06	-1.006265e-09	-2.209681e+01	-6.749551e+01
6.200000e-07	-2.968179e-06	-9.830753e-10	-2.108540e+01	-6.606319e+01
6.300000e-07	-2.824615e-06	-9.626311e-10	-2.006555e+01	-6.459577e+01
6.400000e-07	-2.680014e-06	-9.417073e-10	-1.903833e+01	-6.309104e+01
6.500000e-07	-2.534481e-06	-9.156181e-10	-1.800449e+01	-6.154672e+01
6.600000e-07	-2.388031e-06	-8.880877e-10	-1.696413e+01	-5.996076e+01
6.700000e-07	-2.240766e-06	-8.600992e-10	-1.591799e+01	-5.833146e+01
6.800000e-07	-2.092876e-06	-8.320503e-10	-1.486741e+01	-5.665760e+01
6.900000e-07	-1.944391e-06	-8.056885e-10	-1.381260e+01	-5.493842e+01
7.000000e-07	-1.795213e-06	-7.786482e-10	-1.275287e+01	-5.317355e+01
7.100000e-07	-1.645372e-06	-7.509529e-10	-1.168842e+01	-5.136285e+01
7.200000e-07	-1.494953e-06	-7.237481e-10	-1.061987e+01	-4.950621e+01
7.300000e-07	-1.344077e-06	-6.980681e-10	-9.548079e+00	-4.760341e+01
7.400000e-07	-1.192824e-06	-6.696833e-10	-8.473603e+00	-4.565388e+01
7.500000e-07	-1.041228e-06	-6.381371e-10	-7.396695e+00	-4.365668e+01
7.600000e-07	-8.892699e-07	-6.055670e-10	-6.317210e+00	-4.161037e+01
7.700000e-07	-7.369925e-07	-5.730530e-10	-5.235459e+00	-3.951308e+01
7.800000e-07	-5.844562e-07	-5.405025e-10	-4.151870e+00	-3.736257e+01
7.900000e-07	-4.316764e-07	-5.078071e-10	-3.066550e+00	-3.515628e+01
8.000000e-07	-2.787825e-07	-4.755036e-10	-1.980420e+00	-3.289150e+01
8.100000e-07	-1.257835e-07	-4.401811e-10	-8.935428e-01	-3.056542e+01
8.200000e-07	2.736059e-08	-4.025252e-10	1.943646e-01	-2.817518e+01
8.300000e-07	1.805385e-07	-3.663759e-10	1.282512e+00	-2.571792e+01
8.400000e-07	3.336649e-07	-3.307995e-10	2.370294e+00	-2.319074e+01
8.500000e-07	4.867256e-07	-2.930267e-10	3.457609e+00	-2.059072e+01
8.600000e-07	6.396358e-07	-2.527810e-10	4.543855e+00	-1.791489e+01
8.700000e-07	7.923342e-07	-2.104815e-10	5.628597e+00	-1.516030e+01
8.800000e-07	9.447772e-07	-1.663653e-10	6.711524e+00	-1.232412e+01
8.900000e-07	1.096881e-06	-1.223148e-10	7.792038e+00	-9.403893e+00
9.000000e-07	1.248601e-06	-8.006706e-11	8.869835e+00	-6.397800e+00
9.100000e-07	1.399908e-06	-3.768228e-11	9.944689e+00	-3.305105e+00
9.200000e-07	1.550764e-06	9.200298e-12	1.101634e+01	-1.265834e-01
9.300000e-07	1.701074e-06	5.922162e-11	1.208412e+01	3.135006e+00
9.400000e-07	1.850764e-06	1.092011e-10	1.314749e+01	6.474509e+00
9.500000e-07	1.999760e-06	1.603777e-10	1.420593e+01	9.884068e+00
9.600000e-07	2.147972e-06	2.130170e-10	1.525880e+01	1.335297e+01
9.700000e-07	2.295373e-06	2.649508e-10	1.630591e+01	1.686771e+01
9.800000e-07	2.441918e-06	3.161311e-10	1.734693e+01	2.041225e+01
9.900000e-07	2.587566e-06	3.699321e-10	1.838159e+01	2.396852e+01
1.000000e-06	2.732230e-06	4.262133e-10	1.940926e+01	2.751711e+01
1.010000e-06	2.875828e-06	4.782959e-10	2.042935e+01	3.103808e+01
1.020000e-06	3.018367e-06	5.260183e-10	2.144192e+01	3.451186e+01
1.030000e-06	3.159732e-06	5.746059e-10	2.244616e+01	3.792011e+01
1.040000e-06	3.299791e-06	6.249237e-10	2.344110e+01	4.124651e+01
1.050000e-06	3.438556e-06	6.730127e-10	2.442687e+01	4.447741e+01
1.060000e-06	3.576012e-06	7.177628e-10	2.540333e+01	4.760221e+01
1.070000e-06	3.712121e-06	7.604425e-10	2.637023e+01	5.061354e+01
1.080000e-06	3.846843e-06	8.013064e-10	2.732727e+01	5.350719e+01
1.090000e-06	3.980167e-06	8.416060e-10	2.827437e+01	5.628182e+01
1.100000e-06	4.112037e-06	8.822340e-10	2.921116e+01	5.893847e+01
1.110000e-06	4.242446e-06	9.209432e-10	3.013755e+01	6.148002e+01
1.120000e-06	4.371349e-06	9.553727e-10	3.105326e+01	6.391056e+01
1.130000e-06	4.498700e-06	9.885861e-10	3.195794e+01	6.623479e+01
1.140000e-06	4.624597e-06	1.023728e-09	3.285229e+01	6.845752e+01
1.150000e-06	4.748981e-06	1.059156e-09	3.373589e+01	7.058332e+01
1.160000e-06	4.871698e-06	1.090980e-09	3.460764e+01	7.261624e+01
1.170000e-06	4.992664e-06	1.118742e-09	3.546697e+01	7.455976e+01
1.180000e-06	5.111825e-06	1.143778e-09	3.631346e+01	7.641680e+01
1.190000e-06	5.229063e-06	1.168751e-09	3.714630e+01	7.818985e+01
1.200000e-06	5.344259e-06	1.192337e-09	3.796463e+01	7.988116e+01
1.210000e-06	5.457358e-06	1.214674e-09	3.876807e+01	8.149290e+01
1.220000e-06	5.568434e-06	1.237391e-09	3.955713e+01	8.302731e+01
1.230000e-06	5.677581e-06	1.260518e-09	4.033249e+01	8.448683e+01
1.240000e-06	5.784732e-06	1.282726e-09	4.109367e+01	8.587412e+01
1.250000e-06	5.889741e-06	1.304190e-09	4.183964e+01	8.719204e+01
1.260000e-06	5.992566e-06	1.325317e-09	4.257009e+01	8.844358e+01
1.270000e-06	6.093233e-06	1.343370e-09	4.328521e+01	8.963178e+01
1.280000e-06	6.191638e-06	1.357355e-09	4.398426e+01	9.075963e+01
1.290000e-06	6.287661e-06	1.369495e-09	4.466639e+01	9.182998e+01
1.300000e-06	6.381401e-06	1.384142e-09	4.533230e+01	9.284554e+01
1.310000e-06	6.472885e-06	1.401500e-09	4.598218e+01	9.380889e+01
1.320000e-06	6.561989e-06	1.417127e-09	4.661516e+01	9.472248e+01
1.330000e-06	6.648737e-06	1.430442e-09	4.723141e+01	9.558876e+01
1.340000e-06	6.733193e-06	1.443955e-09	4.783137e+01	9.641019e+01
1.350000e-06	6.815316e-06	1.458176e-09	4.841475e+01	9.718934e+01
1.360000e-06	6.894967e-06	1.471558e-09	4.898058e+01	9.792889e+01
1.370000e-06	6.972075e-06	1.483629e-09	4.952834e+01	9.863156e+01
1.380000e-06	7.046574e-06	1.492930e-09	5.005756e+01	9.930007e+01
1.390000e-06	7.118406e-06	1.500420e-09	5.056784e+01	9.993695e+01
1.400000e-06	7.187715e-06	1.509341e-09	5.106020e+01	1.005445e+02
1.410000e-06	7.254475e-06	1.520154e-09	5.153446e+01	1.011244e+02
1.420000e-06	7.318606e-06	1.531931e-09	5.199003e+01	1.016779e+02
1.430000e-06	7.380264e-06	1.541949e-09	5.242804e+01	1.022056e+02
1.440000e-06	7.439415e-06	1.549454e-09	5.284824e+01	1.027074e+02
1.450000e-06	7.495881e-06	1.556352e-09	5.324936e+01	1.031828e+02
1.460000e-06	7.549638e-06	1.565292e-09	5.363124e+01	1.036309e+02
1.470000e-06	7.600377e-06	1.574895e-09	5.399168e+01	1.040508e+02
1.480000e-06	7.648021e-06	1.581704e-09	5.433014e+01	1.044416e+02
1.490000e-06	7.692962e-06	1.584652e-09	5.464939e+01	1.048029e+02
1.500000e-06	7.735180e-06	1.587652e-09	5.494930e+01	1.051347e+02
1.510000e-06	7.774562e-06	1.595431e-09	5.522906e+01	1.054379e+02
1.520000e-06	7.811274e-06	1.605270e-09	5.548985e+01	1.057139e+02
1.530000e-06	7.845277e-06	1.611219e-09	5.573141e+01	1.059645e+02
1.540000e-06	7.876408e-06	1.613696e-09	5.595255e+01	1.061920e+02
1.550000e-06	7.904761e-06	1.615517e-09	5.615397e+01	1.063985e+02
1.560000e-06	7.930252e-06	1.618605e-09	5.633505e+01	1.065859e+02
1.570000e-06	7.952832e-06	1.623190e-09	5.649546e+01	1.067556e+02
1.580000e-06	7.972728e-06	1.627280e-09	5.663679e+01	1.069079e+02
1.590000e-06	7.989812e-06	1.630098e-09	5.675815e+01	1.070425e+02
1.600000e-06	8.003855e-06	1.631323e-09	5.685791e+01	1.071583e+02
1.610000e-06	8.014760e-06	1.633637e-09	5.693538e+01	1.072535e+02
1.620000e-06	8.022597e-06	1.637344e-09	5.699105e+01	1.073257e+02
1.630000e-06	8.027586e-06	1.639159e-09	5.702649e+01	1.073730e+02
1.640000e-06	8.029698e-06	1.638937e-09	5.704150e+01	1.073936e+02
1.650000e-06	8.028939e-06	1.638568e-09	5.703610e+01	1.073866e+02
1.660000e-06	8.025567e-06	1.636287e-09	5.701215e+01	1.073521e+02
1.670000e-06	8.019547e-06	1.637379e-09	5.696938e+01	1.072914e+02
1.680000e-06	8.010771e-06	1.639095e-09	5.690704e+01	1.072068e+02
1.690000e-06	7.999318e-06	1.638008e-09	5.682568e+01	1.071014e+02
1.700000e-06	7.985084e-06	1.635273e-09	5.672457e+01	1.069788e+02
1.710000e-06	7.968244e-06	1.631500e-09	5.660494e+01	1.068426e+02
1.720000e-06	7.949112e-06	1.626106e-09	5.646903e+01	1.066956e+02
1.730000e-06	7.927474e-06	1.617814e-09	5.631532e+01	1.065398e+02
1.740000e-06	7.902697e-06	1.596096e-09	5.613930e+01	1.063754e+02
1.750000e-06	7.874317e-06	1.609285e-09	5.593770e+01	1.062012e+02
1.760000e-06	7.842522e-06	1.618400e-09	5.571183e+01	1.060143e+02
1.770000e-06	7.808013e-06	1.611675e-09	5.546669e+01	1.058106e+02
1.780000e-06	7.771188e-06	1.613544e-09	5.520509e+01	1.055848e+02
1.790000e-06	7.732133e-06	1.650409e-09	5.492765e+01	1.053315e+02
1.800000e-06	7.691053e-06	1.617925e-09	5.463582e+01	1.050455e+02
1.810000e-06	7.647574e-06	1.598162e-09	5.432696e+01	1.047229e+02
1.820000e-06	7.601408e-06	1.644972e-09	5.399901e+01	1.043610e+02
1.830000e-06	7.552494e-06	1.578233e-09	5.365153e+01	1.039594e+02
1.840000e-06	7.500557e-06	1.588850e-09	5.328258e+01	1.035198e+02
1.850000e-06	7.445734e-06	1.558582e-09	5.289313e+01	1.030457e+02
1.860000e-06	7.388144e-06	1.521329e-09	5.248402e+01	1.025425e+02
1.870000e-06	7.327931e-06	1.556179e-09	5.205627e+01	1.020164e+02
1.880000e-06	7.265092e-06	1.542448e-09	5.160988e+01	1.014742e+02
1.890000e-06	7.199374e-06	1.576664e-09	5.114303e+01	1.009221e+02
1.900000e-06	7.130875e-06	1.537243e-09	5.065643e+01	1.003653e+02
1.910000e-06	7.059551e-06	1.517839e-09	5.014975e+01	9.980721e+01
1.920000e-06	6.985440e-06	1.520891e-09	4.962328e+01	9.924934e+01
1.930000e-06	6.908628e-06	1.499934e-09	4.907762e+01	9.869095e+01
1.940000e-06	6.829077e-06	1.520445e-09	4.851251e+01	9.812938e+01
1.950000e-06	6.747036e-06	1.492453e-09	4.792970e+01	9.756040e+01
1.960000e-06	6.662585e-06	1.500462e-09	4.732978e+01	9.697885e+01
1.970000e-06	6.575638e-06	1.475917e-09	4.671212e+01	9.637927e+01
1.980000e-06	6.486271e-06	1.452926e-09	4.607728e+01	9.575664e+01
1.990000e-06	6.394676e-06	1.462779e-09	4.542660e+01	9.510695e+01
2.000000e-06	6.300816e-06	1.443528e-09	4.475984e+01	9.442769e+01
2.010000e-06	6.204604e-06	1.441566e-09	4.407636e+01	9.371800e+01
2.020000e-06	6.106120e-06	1.426687e-09	4.337676e+01	9.297873e+01
2.030000e-06	6.005478e-06	1.421536e-09	4.266181e+01	9.221214e+01
2.040000e-06	5.902718e-06	1.402319e-09	4.193183e+01	9.142146e+01
2.050000e-06	5.797889e-06	1.387733e-09	4.118714e+01	9.061037e+01
2.060000e-06	5.691083e-06	1.375630e-09	4.042840e+01	8.978236e+01
2.070000e-06	5.582320e-06	1.362411e-09	3.965577e+01	8.894019e+01
2.080000e-06	5.471574e-06	1.354644e-09	3.886905e+01	8.808546e+01
2.090000e-06	5.358760e-06	1.350207e-09	3.806765e+01	8.721835e+01
2.100000e-06	5.243903e-06	1.345121e-09	3.725172e+01	8.633754e+01
2.110000e-06	5.127118e-06	1.324205e-09	3.642211e+01	8.544039e+01
2.120000e-06	5.008392e-06	1.307783e-09	3.557869e+01	8.452321e+01
2.130000e-06	4.887693e-06	1.285494e-09	3.472127e+01	8.358177e+01
2.140000e-06	4.765119e-06	1.270789e-09	3.385053e+01	8.261172e+01
2.150000e-06	4.640855e-06	1.257622e-09	3.296778e+01	8.160913e+01
2.160000e-06	4.515025e-06	1.247632e-09	3.207391e+01	8.057085e+01
2.170000e-06	4.387598e-06	1.232108e-09	3.116869e+01	7.949477e+01
2.180000e-06	4.258499e-06	1.214742e-09	3.025160e+01	7.837998e+01
2.190000e-06	4.127808e-06	1.197776e-09	2.932319e+01	7.722660e+01
2.200000e-06	3.995641e-06	1.179646e-09	2.838430e+01	7.603568e+01
2.210000e-06	3.861994e-06	1.158925e-09	2.743490e+01	7.480879e+01
2.220000e-06	3.726882e-06	1.137247e-09	2.647508e+01	7.354771e+01
2.230000e-06	3.590281e-06	1.120948e-09	2.550470e+01	7.225404e+01
2.240000e-06	3.452205e-06	1.100723e-09	2.452383e+01	7.092889e+01
2.250000e-06	3.312863e-06	1.082063e-09	2.353397e+01	6.957265e+01
2.260000e-06	3.172359e-06	1.062573e-09	2.253585e+01	6.818494e+01
2.270000e-06	3.030563e-06	1.041771e-09	2.152856e+01	6.676463e+01
2.280000e-06	2.887558e-06	1.018191e-09	2.051268e+01	6.530996e+01
2.290000e-06	2.743440e-06	9.990566e-10	1.948889e+01	6.381877e+01
2.300000e-06	2.598317e-06	9.787822e-10	1.845797e+01	6.228881e+01
2.310000e-06	2.452264e-06	9.538765e-10	1.742043e+01	6.071790e+01
2.320000e-06	2.305319e-06	9.276717e-10	1.637656e+01	5.910421e+01
2.330000e-06	2.157662e-06	9.037258e-10	1.532763e+01	5.744634e+01
2.340000e-06	2.009355e-06	8.830364e-10	1.427409e+01	5.574337e+01
2.350000e-06	1.860364e-06	8.584949e-10	1.321568e+01	5.399481e+01
2.360000e-06	1.710761e-06	8.316208e-10	1.215293e+01	5.220045e+01
2.370000e-06	1.560714e-06	8.023455e-10	1.108702e+01	5.036020e+01
2.380000e-06	1.410153e-06	7.724235e-10	1.001747e+01	4.847389e+01
2.390000e-06	1.259047e-06	7.439973e-10	8.944037e+00	4.654110e+01
2.400000e-06	1.107485e-06	7.136350e-10	7.867369e+00	4.456103e+01
2.410000e-06	9.555745e-07	6.804277e-10	6.788225e+00	4.253241e+01
2.420000e-06	8.034049e-07	6.444647e-10	5.707241e+00	4.045354e+01
2.430000e-06	6.509909e-07	6.082607e-10	4.624520e+00	3.832227e+01
2.440000e-06	4.983042e-07	5.761206e-10	3.539861e+00	3.613617e+01
2.450000e-06	3.454286e-07	5.458468e-10	2.453861e+00	3.389257e+01
2.460000e-06	1.924257e-07	5.154833e-10	1.366957e+00	3.158867e+01
2.470000e-06	3.926871e-08	4.813880e-10	2.789577e-01	2.922164e+01
2.480000e-06	-1.139196e-07	4.412702e-10	-8.092640e-01	2.678861e+01
2.490000e-06	-2.670323e-07	4.000081e-10	-1.896948e+00	2.428670e+01
2.500000e-06	-4.201241e-07	3.573604e-10	-2.984484e+00	2.171299e+01
2.510000e-06	-5.731471e-07	3.128369e-10	-4.071532e+00	1.906455e+01
2.520000e-06	-7.259113e-07	2.664877e-10	-5.156740e+00	1.633838e+01
2.530000e-06	-8.783862e-07	2.214742e-10	-6.239894e+00	1.353162e+01
2.540000e-06	-1.030625e-06	1.787567e-10	-7.321370e+00	1.064162e+01
2.550000e-06	-1.182528e-06	1.336049e-10	-8.400465e+00	7.666302e+00
2.560000e-06	-1.333987e-06	8.616472e-11	-9.476397e+00	4.604500e+00
2.570000e-06	-1.484961e-06	3.680405e-11	-1.054889e+01	1.456390e+00
2.580000e-06	-1.635378e-06	-1.545576e-11	-1.161742e+01	-1.776027e+00
2.590000e-06	-1.785173e-06	-6.958612e-11	-1.268154e+01	-5.088497e+00
2.600000e-06	-1.934315e-06	-1.217149e-10	-1.374102e+01	-8.474152e+00
2.610000e-06	-2.082735e-06	-1.732210e-10	-1.479537e+01	-1.192331e+01
2.620000e-06	-2.230391e-06	-2.279067e-10	-1.584429e+01	-1.542343e+01
2.630000e-06	-2.377265e-06	-2.847927e-10	-1.688765e+01	-1.895934e+01
2.640000e-06	-2.523217e-06	-3.420094e-10	-1.792447e+01	-2.251363e+01
2.650000e-06	-2.668168e-06	-3.983414e-10	-1.895417e+01	-2.606728e+01
2.660000e-06	-2.812102e-06	-4.542353e-10	-1.997665e+01	-2.960044e+01
2.670000e-06	-2.954939e-06	-5.091594e-10	-2.099134e+01	-3.309330e+01
2.680000e-06	-3.096582e-06	-5.633179e-10	-2.199755e+01	-3.652698e+01
2.690000e-06	-3.236955e-06	-6.170301e-10	-2.299474e+01	-3.988437e+01
2.700000e-06	-3.376070e-06	-6.685684e-10	-2.398298e+01	-4.315079e+01
2.710000e-06	-3.513948e-06	-7.170548e-10	-2.496244e+01	-4.631454e+01
2.720000e-06	-3.650526e-06	-7.644472e-10	-2.593267e+01	-4.936707e+01
2.730000e-06	-3.785749e-06	-8.133841e-10	-2.689327e+01	-5.230308e+01
2.740000e-06	-3.919604e-06	-8.601658e-10	-2.784415e+01	-5.512024e+01
2.750000e-06	-4.052075e-06	-9.032206e-10	-2.878519e+01	-5.781882e+01
2.760000e-06	-4.183152e-06	-9.423753e-10	-2.971634e+01	-6.040109e+01
2.770000e-06	-4.312784e-06	-9.792663e-10	-3.063723e+01	-6.287080e+01
2.780000e-06	-4.440899e-06	-1.015881e-09	-3.154733e+01	-6.523247e+01
2.790000e-06	-4.567471e-06	-1.050849e-09	-3.244647e+01	-6.749094e+01
2.800000e-06	-4.692462e-06	-1.085406e-09	-3.333439e+01	-6.965090e+01
2.810000e-06	-4.815846e-06	-1.118848e-09	-3.421088e+01	-7.171660e+01
2.820000e-06	-4.937531e-06	-1.148641e-09	-3.507532e+01	-7.369172e+01
2.830000e-06	-5.057381e-06	-1.176665e-09	-3.592670e+01	-7.557938e+01
2.840000e-06	-5.175286e-06	-1.205260e-09	-3.676428e+01	-7.738220e+01
2.850000e-06	-5.291102e-06	-1.233812e-09	-3.758702e+01	-7.910249e+01
2.860000e-06	-5.404746e-06	-1.259799e-09	-3.839432e+01	-8.074243e+01
2.870000e-06	-5.516243e-06	-1.283402e-09	-3.918637e+01	-8.230422e+01
2.880000e-06	-5.625681e-06	-1.306896e-09	-3.996380e+01	-8.379023e+01
2.890000e-06	-5.733176e-06	-1.330084e-09	-4.072743e+01	-8.520303e+01
2.900000e-06	-5.838745e-06	-1.351774e-09	-4.147737e+01	-8.654542e+01
2.910000e-06	-5.942216e-06	-1.371293e-09	-4.221241e+01	-8.782036e+01
2.920000e-06	-6.043431e-06	-1.389545e-09	-4.293142e+01	-8.903088e+01
2.930000e-06	-6.142465e-06	-1.407536e-09	-4.363494e+01	-9.017998e+01
2.940000e-06	-6.239376e-06	-1.425015e-09	-4.432338e+01	-9.127058e+01
