# Temperatura_=_42.33
# Concentracion g/m^3_=_15000.0
# C_Vs_to_Am_M_A/Vsm_=_65563218390.804596
# pendiente_HvsI_1/m_=_3716.3
# ordenada_HvsI_A/m_=_1297.0
# frecuencia_Hz_=_302442.78650217596

Tiempo_(s)	Campo_(V.s)	Magnetizacion_(V.s)	Campo_(kA/m)	Magnetizacion_(A/m)
0.000000e+00	-7.992906e-06	-1.657201e-08	-5.690303e+01	-1.083620e+03
1.000000e-08	-7.989794e-06	-1.657178e-08	-5.688087e+01	-1.083211e+03
2.000000e-08	-7.984002e-06	-1.656367e-08	-5.683964e+01	-1.082586e+03
3.000000e-08	-7.975556e-06	-1.655140e-08	-5.677951e+01	-1.081759e+03
4.000000e-08	-7.964347e-06	-1.653642e-08	-5.669971e+01	-1.080749e+03
5.000000e-08	-7.950212e-06	-1.651690e-08	-5.659908e+01	-1.079578e+03
6.000000e-08	-7.933167e-06	-1.649189e-08	-5.647773e+01	-1.078272e+03
7.000000e-08	-7.913664e-06	-1.646577e-08	-5.633889e+01	-1.076857e+03
8.000000e-08	-7.891907e-06	-1.646361e-08	-5.618399e+01	-1.075352e+03
9.000000e-08	-7.867268e-06	-1.646704e-08	-5.600859e+01	-1.073773e+03
1.000000e-07	-7.839308e-06	-1.643674e-08	-5.580953e+01	-1.072126e+03
1.100000e-07	-7.808299e-06	-1.639252e-08	-5.558877e+01	-1.070411e+03
1.200000e-07	-7.774484e-06	-1.634585e-08	-5.534803e+01	-1.068617e+03
1.300000e-07	-7.738015e-06	-1.628264e-08	-5.508841e+01	-1.066727e+03
1.400000e-07	-7.699299e-06	-1.620070e-08	-5.481278e+01	-1.064719e+03
1.500000e-07	-7.658503e-06	-1.618978e-08	-5.452234e+01	-1.062568e+03
1.600000e-07	-7.615213e-06	-1.622653e-08	-5.421415e+01	-1.060246e+03
1.700000e-07	-7.569176e-06	-1.617983e-08	-5.388641e+01	-1.057730e+03
1.800000e-07	-7.520457e-06	-1.612476e-08	-5.353957e+01	-1.054998e+03
1.900000e-07	-7.468747e-06	-1.603823e-08	-5.317144e+01	-1.052033e+03
2.000000e-07	-7.414081e-06	-1.594815e-08	-5.278226e+01	-1.048823e+03
2.100000e-07	-7.356656e-06	-1.588546e-08	-5.237344e+01	-1.045363e+03
2.200000e-07	-7.296509e-06	-1.585378e-08	-5.194524e+01	-1.041650e+03
2.300000e-07	-7.233784e-06	-1.584979e-08	-5.149869e+01	-1.037688e+03
2.400000e-07	-7.168317e-06	-1.574104e-08	-5.103261e+01	-1.033483e+03
2.500000e-07	-7.100075e-06	-1.565322e-08	-5.054679e+01	-1.029041e+03
2.600000e-07	-7.029190e-06	-1.563057e-08	-5.004214e+01	-1.024370e+03
2.700000e-07	-6.955529e-06	-1.555859e-08	-4.951774e+01	-1.019479e+03
2.800000e-07	-6.879089e-06	-1.544848e-08	-4.897355e+01	-1.014374e+03
2.900000e-07	-6.799922e-06	-1.537597e-08	-4.840995e+01	-1.009060e+03
3.000000e-07	-6.718118e-06	-1.529689e-08	-4.782757e+01	-1.003541e+03
3.100000e-07	-6.633953e-06	-1.518021e-08	-4.722838e+01	-9.978171e+02
3.200000e-07	-6.547536e-06	-1.511147e-08	-4.661316e+01	-9.918888e+02
3.300000e-07	-6.458801e-06	-1.503944e-08	-4.598144e+01	-9.857535e+02
3.400000e-07	-6.367698e-06	-1.491563e-08	-4.533286e+01	-9.794074e+02
3.500000e-07	-6.274282e-06	-1.479786e-08	-4.466781e+01	-9.728452e+02
3.600000e-07	-6.178632e-06	-1.470822e-08	-4.398686e+01	-9.660606e+02
3.700000e-07	-6.080688e-06	-1.461887e-08	-4.328958e+01	-9.590464e+02
3.800000e-07	-5.980491e-06	-1.450786e-08	-4.257626e+01	-9.517954e+02
3.900000e-07	-5.878152e-06	-1.439558e-08	-4.184769e+01	-9.443004e+02
4.000000e-07	-5.773748e-06	-1.427086e-08	-4.110441e+01	-9.365549e+02
4.100000e-07	-5.667341e-06	-1.412578e-08	-4.034688e+01	-9.285534e+02
4.200000e-07	-5.558952e-06	-1.399486e-08	-3.957524e+01	-9.202918e+02
4.300000e-07	-5.448656e-06	-1.389531e-08	-3.879002e+01	-9.117676e+02
4.400000e-07	-5.336366e-06	-1.377218e-08	-3.799061e+01	-9.029793e+02
4.500000e-07	-5.221973e-06	-1.360719e-08	-3.717622e+01	-8.939264e+02
4.600000e-07	-5.105526e-06	-1.345483e-08	-3.634721e+01	-8.846085e+02
4.700000e-07	-4.987171e-06	-1.332040e-08	-3.550462e+01	-8.750244e+02
4.800000e-07	-4.866990e-06	-1.317093e-08	-3.464903e+01	-8.651712e+02
4.900000e-07	-4.745060e-06	-1.301885e-08	-3.378099e+01	-8.550437e+02
5.000000e-07	-4.621425e-06	-1.287088e-08	-3.290080e+01	-8.446333e+02
5.100000e-07	-4.496122e-06	-1.269907e-08	-3.200875e+01	-8.339282e+02
5.200000e-07	-4.369197e-06	-1.251664e-08	-3.110515e+01	-8.229134e+02
5.300000e-07	-4.240631e-06	-1.234975e-08	-3.018986e+01	-8.115715e+02
5.400000e-07	-4.110534e-06	-1.217922e-08	-2.926367e+01	-7.998836e+02
5.500000e-07	-3.978907e-06	-1.198251e-08	-2.832660e+01	-7.878313e+02
5.600000e-07	-3.845750e-06	-1.178456e-08	-2.737863e+01	-7.753975e+02
5.700000e-07	-3.711123e-06	-1.159787e-08	-2.642020e+01	-7.625682e+02
5.800000e-07	-3.575086e-06	-1.139910e-08	-2.545172e+01	-7.493337e+02
5.900000e-07	-3.437680e-06	-1.118382e-08	-2.447350e+01	-7.356884e+02
6.000000e-07	-3.298950e-06	-1.097113e-08	-2.348586e+01	-7.216311e+02
6.100000e-07	-3.158859e-06	-1.075345e-08	-2.248852e+01	-7.071634e+02
6.200000e-07	-3.017305e-06	-1.051865e-08	-2.148077e+01	-6.922886e+02
6.300000e-07	-2.874489e-06	-1.028681e-08	-2.046404e+01	-6.770091e+02
6.400000e-07	-2.730627e-06	-1.006191e-08	-1.943985e+01	-6.613243e+02
6.500000e-07	-2.585772e-06	-9.820429e-09	-1.840861e+01	-6.452287e+02
6.600000e-07	-2.439991e-06	-9.556176e-09	-1.737076e+01	-6.287102e+02
6.700000e-07	-2.293357e-06	-9.290082e-09	-1.632685e+01	-6.117496e+02
6.800000e-07	-2.145980e-06	-9.023905e-09	-1.527764e+01	-5.943210e+02
6.900000e-07	-1.997915e-06	-8.747321e-09	-1.422354e+01	-5.763932e+02
7.000000e-07	-1.849198e-06	-8.464296e-09	-1.316480e+01	-5.579317e+02
7.100000e-07	-1.699952e-06	-8.177951e-09	-1.210228e+01	-5.389020e+02
7.200000e-07	-1.550251e-06	-7.880331e-09	-1.103653e+01	-5.192720e+02
7.300000e-07	-1.400071e-06	-7.567977e-09	-9.967373e+00	-4.990148e+02
7.400000e-07	-1.249404e-06	-7.249997e-09	-8.894749e+00	-4.781100e+02
7.500000e-07	-1.098258e-06	-6.925334e-09	-7.818708e+00	-4.565444e+02
7.600000e-07	-9.466359e-07	-6.589271e-09	-6.739282e+00	-4.343103e+02
7.700000e-07	-7.946390e-07	-6.240393e-09	-5.657187e+00	-4.114029e+02
7.800000e-07	-6.423931e-07	-5.879622e-09	-4.573319e+00	-3.878167e+02
7.900000e-07	-4.899557e-07	-5.507824e-09	-3.488088e+00	-3.635399e+02
8.000000e-07	-3.373190e-07	-5.122631e-09	-2.401438e+00	-3.385504e+02
8.100000e-07	-1.845537e-07	-4.726721e-09	-1.313873e+00	-3.128116e+02
8.200000e-07	-3.168722e-08	-4.319733e-09	-2.255874e-01	-2.862697e+02
8.300000e-07	1.212030e-07	-3.900369e-09	8.628675e-01	-2.588539e+02
8.400000e-07	2.739747e-07	-3.469058e-09	1.950478e+00	-2.304793e+02
8.500000e-07	4.266730e-07	-3.022905e-09	3.037567e+00	-2.010520e+02
8.600000e-07	5.793033e-07	-2.558018e-09	4.124171e+00	-1.704784e+02
8.700000e-07	7.318157e-07	-2.074192e-09	5.209936e+00	-1.386749e+02
8.800000e-07	8.841312e-07	-1.571746e-09	6.294299e+00	-1.055807e+02
8.900000e-07	1.036104e-06	-1.050322e-09	7.376224e+00	-7.116896e+01
9.000000e-07	1.187723e-06	-5.095927e-10	8.455627e+00	-3.545761e+01
9.100000e-07	1.338931e-06	4.907460e-11	9.532105e+00	1.482565e+00
9.200000e-07	1.489637e-06	6.250289e-10	1.060501e+01	3.952370e+01
9.300000e-07	1.639802e-06	1.218530e-09	1.167406e+01	7.848100e+01
9.400000e-07	1.789350e-06	1.825497e-09	1.273872e+01	1.181176e+02
9.500000e-07	1.938258e-06	2.439528e-09	1.379883e+01	1.581541e+02
9.600000e-07	2.086470e-06	3.054363e-09	1.485398e+01	1.982818e+02
9.700000e-07	2.233876e-06	3.664613e-09	1.590339e+01	2.381793e+02
9.800000e-07	2.380445e-06	4.263576e-09	1.694684e+01	2.775293e+02
9.900000e-07	2.526093e-06	4.845353e-09	1.798374e+01	3.160364e+02
1.000000e-06	2.670828e-06	5.408961e-09	1.901413e+01	3.534423e+02
1.010000e-06	2.814639e-06	5.952448e-09	2.003795e+01	3.895378e+02
1.020000e-06	2.957341e-06	6.472906e-09	2.105387e+01	4.241706e+02
1.030000e-06	3.098849e-06	6.970000e-09	2.206130e+01	4.572484e+02
1.040000e-06	3.239109e-06	7.446574e-09	2.305983e+01	4.887367e+02
1.050000e-06	3.378052e-06	7.902435e-09	2.404900e+01	5.186528e+02
1.060000e-06	3.515708e-06	8.335631e-09	2.502900e+01	5.470557e+02
1.070000e-06	3.652053e-06	8.748986e-09	2.599966e+01	5.740340e+02
1.080000e-06	3.787009e-06	9.141755e-09	2.696044e+01	5.996932e+02
1.090000e-06	3.920603e-06	9.514584e-09	2.791152e+01	6.241434e+02
1.100000e-06	4.052793e-06	9.869577e-09	2.885261e+01	6.474885e+02
1.110000e-06	4.183461e-06	1.020894e-08	2.978286e+01	6.698192e+02
1.120000e-06	4.312619e-06	1.053305e-08	3.070236e+01	6.912076e+02
1.130000e-06	4.440320e-06	1.084423e-08	3.161148e+01	7.117072e+02
1.140000e-06	4.566520e-06	1.114328e-08	3.250993e+01	7.313538e+02
1.150000e-06	4.691199e-06	1.142893e-08	3.339754e+01	7.501701e+02
1.160000e-06	4.814251e-06	1.170086e-08	3.427357e+01	7.681711e+02
1.170000e-06	4.935544e-06	1.195854e-08	3.513708e+01	7.853698e+02
1.180000e-06	5.055053e-06	1.220397e-08	3.598789e+01	8.017826e+02
1.190000e-06	5.172688e-06	1.243956e-08	3.682535e+01	8.174326e+02
1.200000e-06	5.288388e-06	1.266777e-08	3.764904e+01	8.323518e+02
1.210000e-06	5.402105e-06	1.288625e-08	3.845862e+01	8.465808e+02
1.220000e-06	5.513759e-06	1.309173e-08	3.925351e+01	8.601668e+02
1.230000e-06	5.623446e-06	1.328718e-08	4.003438e+01	8.731601e+02
1.240000e-06	5.731158e-06	1.347537e-08	4.080120e+01	8.856101e+02
1.250000e-06	5.836771e-06	1.365789e-08	4.155309e+01	8.975605e+02
1.260000e-06	5.940216e-06	1.383348e-08	4.228953e+01	9.090466e+02
1.270000e-06	6.041512e-06	1.399982e-08	4.301068e+01	9.200927e+02
1.280000e-06	6.140568e-06	1.415840e-08	4.371588e+01	9.307113e+02
1.290000e-06	6.237229e-06	1.431120e-08	4.440402e+01	9.409047e+02
1.300000e-06	6.331612e-06	1.445861e-08	4.507595e+01	9.506670e+02
1.310000e-06	6.423811e-06	1.460083e-08	4.573233e+01	9.599883e+02
1.320000e-06	6.513710e-06	1.473719e-08	4.637235e+01	9.688585e+02
1.330000e-06	6.601249e-06	1.486635e-08	4.699555e+01	9.772714e+02
1.340000e-06	6.686507e-06	1.498908e-08	4.760252e+01	9.852279e+02
1.350000e-06	6.769451e-06	1.510524e-08	4.819302e+01	9.927381e+02
1.360000e-06	6.849952e-06	1.521446e-08	4.876612e+01	9.998214e+02
1.370000e-06	6.927926e-06	1.531750e-08	4.932122e+01	1.006506e+03
1.380000e-06	7.003255e-06	1.541483e-08	4.985751e+01	1.012825e+03
1.390000e-06	7.075911e-06	1.550641e-08	5.037476e+01	1.018816e+03
1.400000e-06	7.146032e-06	1.559212e-08	5.087397e+01	1.024512e+03
1.410000e-06	7.213623e-06	1.567339e-08	5.135516e+01	1.029944e+03
1.420000e-06	7.278601e-06	1.575075e-08	5.181775e+01	1.035134e+03
1.430000e-06	7.341087e-06	1.582398e-08	5.226260e+01	1.040093e+03
1.440000e-06	7.401118e-06	1.589532e-08	5.268997e+01	1.044824e+03
1.450000e-06	7.458484e-06	1.596550e-08	5.309837e+01	1.049319e+03
1.460000e-06	7.513139e-06	1.603253e-08	5.348747e+01	1.053563e+03
1.470000e-06	7.564908e-06	1.609251e-08	5.385602e+01	1.057540e+03
1.480000e-06	7.613596e-06	1.614471e-08	5.420265e+01	1.061231e+03
1.490000e-06	7.659482e-06	1.619245e-08	5.452931e+01	1.064624e+03
1.500000e-06	7.702734e-06	1.623657e-08	5.483723e+01	1.067709e+03
1.510000e-06	7.743189e-06	1.627692e-08	5.512524e+01	1.070489e+03
1.520000e-06	7.780898e-06	1.631567e-08	5.539370e+01	1.072972e+03
1.530000e-06	7.815895e-06	1.635197e-08	5.564285e+01	1.075175e+03
1.540000e-06	7.848053e-06	1.638293e-08	5.587179e+01	1.077120e+03
1.550000e-06	7.877502e-06	1.640947e-08	5.608144e+01	1.078834e+03
1.560000e-06	7.904229e-06	1.643304e-08	5.627172e+01	1.080341e+03
1.570000e-06	7.927997e-06	1.645342e-08	5.644092e+01	1.081664e+03
1.580000e-06	7.948891e-06	1.647053e-08	5.658967e+01	1.082818e+03
1.590000e-06	7.966966e-06	1.648496e-08	5.671835e+01	1.083812e+03
1.600000e-06	7.982066e-06	1.649702e-08	5.682586e+01	1.084647e+03
1.610000e-06	7.994037e-06	1.650633e-08	5.691107e+01	1.085316e+03
1.620000e-06	8.002845e-06	1.651172e-08	5.697378e+01	1.085809e+03
1.630000e-06	8.008781e-06	1.651309e-08	5.701604e+01	1.086109e+03
1.640000e-06	8.011985e-06	1.651363e-08	5.703885e+01	1.086206e+03
1.650000e-06	8.012357e-06	1.651352e-08	5.704150e+01	1.086087e+03
1.660000e-06	8.010009e-06	1.650990e-08	5.702478e+01	1.085747e+03
1.670000e-06	8.004986e-06	1.650360e-08	5.698903e+01	1.085191e+03
1.680000e-06	7.997251e-06	1.649313e-08	5.693396e+01	1.084427e+03
1.690000e-06	7.986891e-06	1.647919e-08	5.686020e+01	1.083472e+03
1.700000e-06	7.973714e-06	1.646475e-08	5.676639e+01	1.082350e+03
1.710000e-06	7.957794e-06	1.645153e-08	5.665305e+01	1.081084e+03
1.720000e-06	7.939542e-06	1.643398e-08	5.652312e+01	1.079701e+03
1.730000e-06	7.918957e-06	1.637937e-08	5.637657e+01	1.078222e+03
1.740000e-06	7.895486e-06	1.633870e-08	5.620947e+01	1.076666e+03
1.750000e-06	7.868508e-06	1.632946e-08	5.601741e+01	1.075040e+03
1.760000e-06	7.837985e-06	1.630761e-08	5.580011e+01	1.073347e+03
1.770000e-06	7.804570e-06	1.628127e-08	5.556222e+01	1.071579e+03
1.780000e-06	7.768779e-06	1.629389e-08	5.530742e+01	1.069722e+03
1.790000e-06	7.730664e-06	1.627914e-08	5.503607e+01	1.067754e+03
1.800000e-06	7.690499e-06	1.620579e-08	5.475013e+01	1.065651e+03
1.810000e-06	7.648069e-06	1.618890e-08	5.444806e+01	1.063387e+03
1.820000e-06	7.602922e-06	1.612709e-08	5.412665e+01	1.060935e+03
1.830000e-06	7.555149e-06	1.612675e-08	5.378655e+01	1.058274e+03
1.840000e-06	7.504499e-06	1.614443e-08	5.342596e+01	1.055385e+03
1.850000e-06	7.450871e-06	1.610667e-08	5.304417e+01	1.052254e+03
1.860000e-06	7.394437e-06	1.608740e-08	5.264241e+01	1.048874e+03
1.870000e-06	7.335289e-06	1.592232e-08	5.222132e+01	1.045242e+03
1.880000e-06	7.273484e-06	1.583345e-08	5.178132e+01	1.041359e+03
1.890000e-06	7.208879e-06	1.582501e-08	5.132139e+01	1.037231e+03
1.900000e-06	7.141566e-06	1.574771e-08	5.084218e+01	1.032863e+03
1.910000e-06	7.071555e-06	1.571137e-08	5.034375e+01	1.028265e+03
1.920000e-06	6.998740e-06	1.563568e-08	4.982537e+01	1.023444e+03
1.930000e-06	6.923157e-06	1.553317e-08	4.928728e+01	1.018406e+03
1.940000e-06	6.844770e-06	1.543854e-08	4.872923e+01	1.013159e+03
1.950000e-06	6.763776e-06	1.539505e-08	4.815261e+01	1.007704e+03
1.960000e-06	6.680378e-06	1.533588e-08	4.755889e+01	1.002046e+03
1.970000e-06	6.594499e-06	1.520048e-08	4.694750e+01	9.961829e+02
1.980000e-06	6.506159e-06	1.510998e-08	4.631858e+01	9.901140e+02
1.990000e-06	6.415552e-06	1.501554e-08	4.567354e+01	9.838357e+02
2.000000e-06	6.322720e-06	1.492721e-08	4.501265e+01	9.773431e+02
2.010000e-06	6.227548e-06	1.483050e-08	4.433510e+01	9.706302e+02
2.020000e-06	6.130137e-06	1.472732e-08	4.364161e+01	9.636902e+02
2.030000e-06	6.030577e-06	1.460460e-08	4.293283e+01	9.565156e+02
2.040000e-06	5.928858e-06	1.446658e-08	4.220867e+01	9.490993e+02
2.050000e-06	5.825013e-06	1.437554e-08	4.146938e+01	9.414345e+02
2.060000e-06	5.719149e-06	1.428620e-08	4.071571e+01	9.335152e+02
2.070000e-06	5.611347e-06	1.415488e-08	3.994825e+01	9.253371e+02
2.080000e-06	5.501566e-06	1.398873e-08	3.916670e+01	9.168970e+02
2.090000e-06	5.389710e-06	1.385151e-08	3.837038e+01	9.081932e+02
2.100000e-06	5.275842e-06	1.372158e-08	3.755972e+01	8.992249e+02
2.110000e-06	5.160021e-06	1.359559e-08	3.673517e+01	8.899918e+02
2.120000e-06	5.042210e-06	1.348016e-08	3.589646e+01	8.804929e+02
2.130000e-06	4.922487e-06	1.333559e-08	3.504412e+01	8.707262e+02
2.140000e-06	4.800941e-06	1.315268e-08	3.417882e+01	8.606872e+02
2.150000e-06	4.677639e-06	1.297935e-08	3.330100e+01	8.503683e+02
2.160000e-06	4.552637e-06	1.283863e-08	3.241109e+01	8.397590e+02
2.170000e-06	4.425963e-06	1.268618e-08	3.150928e+01	8.288450e+02
2.180000e-06	4.297653e-06	1.250702e-08	3.059582e+01	8.176098e+02
2.190000e-06	4.167830e-06	1.231965e-08	2.967158e+01	8.060347e+02
2.200000e-06	4.036514e-06	1.213508e-08	2.873672e+01	7.941009e+02
2.210000e-06	3.903714e-06	1.194451e-08	2.779128e+01	7.817909e+02
2.220000e-06	3.769457e-06	1.176313e-08	2.683549e+01	7.690896e+02
2.230000e-06	3.633701e-06	1.158123e-08	2.586901e+01	7.559857e+02
2.240000e-06	3.496526e-06	1.137221e-08	2.489243e+01	7.424722e+02
2.250000e-06	3.358036e-06	1.114550e-08	2.390650e+01	7.285468e+02
2.260000e-06	3.218265e-06	1.093251e-08	2.291144e+01	7.142102e+02
2.270000e-06	3.077263e-06	1.072491e-08	2.190762e+01	6.994654e+02
2.280000e-06	2.935054e-06	1.049247e-08	2.089521e+01	6.843154e+02
2.290000e-06	2.791710e-06	1.024087e-08	1.987472e+01	6.687607e+02
2.300000e-06	2.647287e-06	9.987622e-09	1.884654e+01	6.527976e+02
2.310000e-06	2.501984e-06	9.738300e-09	1.781210e+01	6.364163e+02
2.320000e-06	2.355925e-06	9.491014e-09	1.677228e+01	6.195998e+02
2.330000e-06	2.208995e-06	9.243350e-09	1.572625e+01	6.023244e+02
2.340000e-06	2.061199e-06	8.976963e-09	1.467407e+01	5.845602e+02
2.350000e-06	1.912736e-06	8.682711e-09	1.361713e+01	5.662736e+02
2.360000e-06	1.763744e-06	8.381612e-09	1.255643e+01	5.474297e+02
2.370000e-06	1.614211e-06	8.088790e-09	1.149188e+01	5.279954e+02
2.380000e-06	1.464181e-06	7.793666e-09	1.042379e+01	5.079418e+02
2.390000e-06	1.313674e-06	7.481660e-09	9.352294e+00	4.872465e+02
2.400000e-06	1.162744e-06	7.150666e-09	8.277799e+00	4.658939e+02
2.410000e-06	1.011399e-06	6.810176e-09	7.200343e+00	4.438747e+02
2.420000e-06	8.596316e-07	6.466939e-09	6.119881e+00	4.211837e+02
2.430000e-06	7.075100e-07	6.120507e-09	5.036899e+00	3.978161e+02
2.440000e-06	5.550781e-07	5.763389e-09	3.951707e+00	3.737625e+02
2.450000e-06	4.024225e-07	5.384409e-09	2.864923e+00	3.490049e+02
2.460000e-06	2.496125e-07	4.986048e-09	1.777039e+00	3.235115e+02
2.470000e-06	9.666088e-08	4.579714e-09	6.881473e-01	2.972341e+02
2.480000e-06	-5.631350e-08	4.166837e-09	-4.009066e-01	2.701075e+02
2.490000e-06	-2.092332e-07	3.739961e-09	-1.489571e+00	2.420505e+02
2.500000e-06	-3.621294e-07	3.293076e-09	-2.578069e+00	2.129715e+02
2.510000e-06	-5.149552e-07	2.828021e-09	-3.666065e+00	1.827756e+02
2.520000e-06	-6.675599e-07	2.348782e-09	-4.752487e+00	1.513750e+02
2.530000e-06	-8.199139e-07	1.855568e-09	-5.837123e+00	1.187000e+02
2.540000e-06	-9.719757e-07	1.343569e-09	-6.919681e+00	8.471158e+01
2.550000e-06	-1.123602e-06	8.064988e-10	-7.999137e+00	4.941240e+01
2.560000e-06	-1.274740e-06	2.452610e-10	-9.075116e+00	1.285556e+01
2.570000e-06	-1.425408e-06	-3.338189e-10	-1.014775e+01	-2.484967e+01
2.580000e-06	-1.575595e-06	-9.258224e-10	-1.121696e+01	-6.353646e+01
2.590000e-06	-1.725228e-06	-1.527957e-09	-1.228223e+01	-1.029839e+02
2.600000e-06	-1.874264e-06	-2.138757e-09	-1.334324e+01	-1.429249e+02
2.610000e-06	-2.022675e-06	-2.756175e-09	-1.439981e+01	-1.830586e+02
2.620000e-06	-2.170372e-06	-3.373795e-09	-1.545130e+01	-2.230657e+02
2.630000e-06	-2.317166e-06	-3.983193e-09	-1.649634e+01	-2.626257e+02
2.640000e-06	-2.463012e-06	-4.577434e-09	-1.753465e+01	-3.014345e+02
2.650000e-06	-2.608045e-06	-5.154062e-09	-1.856717e+01	-3.392203e+02
2.660000e-06	-2.752138e-06	-5.715092e-09	-1.959300e+01	-3.757569e+02
2.670000e-06	-2.895051e-06	-6.256159e-09	-2.061042e+01	-4.108733e+02
2.680000e-06	-3.036817e-06	-6.769358e-09	-2.161968e+01	-4.444578e+02
2.690000e-06	-3.177378e-06	-7.254180e-09	-2.262036e+01	-4.764580e+02
2.700000e-06	-3.316638e-06	-7.715560e-09	-2.361178e+01	-5.068753e+02
2.710000e-06	-3.454658e-06	-8.156680e-09	-2.459437e+01	-5.357565e+02
2.720000e-06	-3.591441e-06	-8.577970e-09	-2.556815e+01	-5.631823e+02
2.730000e-06	-3.726832e-06	-8.983070e-09	-2.653203e+01	-5.892540e+02
2.740000e-06	-3.860821e-06	-9.370883e-09	-2.748592e+01	-6.140815e+02
2.750000e-06	-3.993497e-06	-9.737157e-09	-2.843047e+01	-6.377716e+02
2.760000e-06	-4.124741e-06	-1.008310e-08	-2.936482e+01	-6.604200e+02
2.770000e-06	-4.254567e-06	-1.041432e-08	-3.028908e+01	-6.821051e+02
2.780000e-06	-4.383031e-06	-1.073156e-08	-3.120363e+01	-7.028862e+02
2.790000e-06	-4.509972e-06	-1.103514e-08	-3.210735e+01	-7.228045e+02
2.800000e-06	-4.635331e-06	-1.132619e-08	-3.299980e+01	-7.418862e+02
2.810000e-06	-4.759063e-06	-1.160360e-08	-3.388068e+01	-7.601484e+02
2.820000e-06	-4.881081e-06	-1.186630e-08	-3.474935e+01	-7.776040e+02
2.830000e-06	-5.001330e-06	-1.211768e-08	-3.560542e+01	-7.942677e+02
2.840000e-06	-5.119676e-06	-1.236129e-08	-3.644795e+01	-8.101603e+02
2.850000e-06	-5.236024e-06	-1.259590e-08	-3.727626e+01	-8.253109e+02
2.860000e-06	-5.350258e-06	-1.282114e-08	-3.808950e+01	-8.397573e+02
2.870000e-06	-5.462287e-06	-1.303763e-08	-3.888706e+01	-8.535451e+02
2.880000e-06	-5.572199e-06	-1.324336e-08	-3.966955e+01	-8.667239e+02
2.890000e-06	-5.680150e-06	-1.343861e-08	-4.043807e+01	-8.793439e+02
2.900000e-06	-5.786211e-06	-1.362589e-08	-4.119314e+01	-8.914510e+02
2.910000e-06	-5.890216e-06	-1.380503e-08	-4.193357e+01	-9.030837e+02
2.920000e-06	-5.991999e-06	-1.397577e-08	-4.265819e+01	-9.142698e+02
2.930000e-06	-6.091578e-06	-1.413950e-08	-4.336710e+01	-9.250256e+02
2.940000e-06	-6.188981e-06	-1.429694e-08	-4.406053e+01	-9.353565e+02
