# Temperatura_=_56.4
# Concentracion g/m^3_=_15000.0
# C_Vs_to_Am_M_A/Vsm_=_65563218390.804596
# pendiente_HvsI_1/m_=_3716.3
# ordenada_HvsI_A/m_=_1297.0
# frecuencia_Hz_=_302450.499487897

Tiempo_(s)	Campo_(V.s)	Magnetizacion_(V.s)	Campo_(kA/m)	Magnetizacion_(A/m)
0.000000e+00	-7.983882e-06	-1.728749e-08	-5.690111e+01	-1.130908e+03
1.000000e-08	-7.980782e-06	-1.728760e-08	-5.687902e+01	-1.130432e+03
2.000000e-08	-7.975038e-06	-1.727797e-08	-5.683808e+01	-1.129746e+03
3.000000e-08	-7.966710e-06	-1.726326e-08	-5.677872e+01	-1.128863e+03
4.000000e-08	-7.955572e-06	-1.724394e-08	-5.669934e+01	-1.127798e+03
5.000000e-08	-7.941452e-06	-1.722137e-08	-5.659871e+01	-1.126569e+03
6.000000e-08	-7.924417e-06	-1.719641e-08	-5.647730e+01	-1.125195e+03
7.000000e-08	-7.904989e-06	-1.716692e-08	-5.633884e+01	-1.123692e+03
8.000000e-08	-7.883235e-06	-1.716445e-08	-5.618379e+01	-1.122074e+03
9.000000e-08	-7.858512e-06	-1.719984e-08	-5.600760e+01	-1.120349e+03
1.000000e-07	-7.830533e-06	-1.715138e-08	-5.580819e+01	-1.118520e+03
1.100000e-07	-7.799588e-06	-1.707216e-08	-5.558764e+01	-1.116584e+03
1.200000e-07	-7.765888e-06	-1.703234e-08	-5.534746e+01	-1.114534e+03
1.300000e-07	-7.729537e-06	-1.699048e-08	-5.508839e+01	-1.112356e+03
1.400000e-07	-7.690865e-06	-1.691106e-08	-5.481278e+01	-1.110036e+03
1.500000e-07	-7.650120e-06	-1.686984e-08	-5.452239e+01	-1.107557e+03
1.600000e-07	-7.606938e-06	-1.692032e-08	-5.421463e+01	-1.104902e+03
1.700000e-07	-7.560922e-06	-1.680190e-08	-5.388668e+01	-1.102055e+03
1.800000e-07	-7.512203e-06	-1.676705e-08	-5.353945e+01	-1.099002e+03
1.900000e-07	-7.460522e-06	-1.675709e-08	-5.317112e+01	-1.095732e+03
2.000000e-07	-7.405857e-06	-1.661443e-08	-5.278152e+01	-1.092234e+03
2.100000e-07	-7.348477e-06	-1.656931e-08	-5.237258e+01	-1.088501e+03
2.200000e-07	-7.288414e-06	-1.649299e-08	-5.194451e+01	-1.084527e+03
2.300000e-07	-7.225753e-06	-1.645574e-08	-5.149792e+01	-1.080311e+03
2.400000e-07	-7.160356e-06	-1.639765e-08	-5.103184e+01	-1.075848e+03
2.500000e-07	-7.092221e-06	-1.629958e-08	-5.054624e+01	-1.071140e+03
2.600000e-07	-7.021467e-06	-1.624828e-08	-5.004198e+01	-1.066186e+03
2.700000e-07	-6.947955e-06	-1.616666e-08	-4.951806e+01	-1.060988e+03
2.800000e-07	-6.871673e-06	-1.607360e-08	-4.897439e+01	-1.055551e+03
2.900000e-07	-6.792592e-06	-1.598356e-08	-4.841078e+01	-1.049876e+03
3.000000e-07	-6.710801e-06	-1.592923e-08	-4.782786e+01	-1.043969e+03
3.100000e-07	-6.626723e-06	-1.582696e-08	-4.722864e+01	-1.037833e+03
3.200000e-07	-6.540466e-06	-1.569280e-08	-4.661388e+01	-1.031474e+03
3.300000e-07	-6.451871e-06	-1.561943e-08	-4.598247e+01	-1.024893e+03
3.400000e-07	-6.360847e-06	-1.551084e-08	-4.533374e+01	-1.018091e+03
3.500000e-07	-6.267492e-06	-1.538523e-08	-4.466840e+01	-1.011068e+03
3.600000e-07	-6.171915e-06	-1.527197e-08	-4.398722e+01	-1.003820e+03
3.700000e-07	-6.074027e-06	-1.517886e-08	-4.328958e+01	-9.963420e+02
3.800000e-07	-5.973914e-06	-1.506427e-08	-4.257607e+01	-9.886258e+02
3.900000e-07	-5.871723e-06	-1.492679e-08	-4.184776e+01	-9.806632e+02
4.000000e-07	-5.767566e-06	-1.480989e-08	-4.110543e+01	-9.724456e+02
4.100000e-07	-5.661380e-06	-1.468045e-08	-4.034864e+01	-9.639649e+02
4.200000e-07	-5.553122e-06	-1.453590e-08	-3.957708e+01	-9.552144e+02
4.300000e-07	-5.442860e-06	-1.438769e-08	-3.879125e+01	-9.461894e+02
4.400000e-07	-5.330643e-06	-1.427155e-08	-3.799148e+01	-9.368872e+02
4.500000e-07	-5.216418e-06	-1.413725e-08	-3.717740e+01	-9.273069e+02
4.600000e-07	-5.100106e-06	-1.397102e-08	-3.634845e+01	-9.174483e+02
4.700000e-07	-4.981879e-06	-1.381446e-08	-3.550584e+01	-9.073111e+02
4.800000e-07	-4.861873e-06	-1.366138e-08	-3.465055e+01	-8.968939e+02
4.900000e-07	-4.740134e-06	-1.349374e-08	-3.378293e+01	-8.861923e+02
5.000000e-07	-4.616622e-06	-1.332207e-08	-3.290265e+01	-8.751986e+02
5.100000e-07	-4.491394e-06	-1.315761e-08	-3.201016e+01	-8.639015e+02
5.200000e-07	-4.364583e-06	-1.297700e-08	-3.110637e+01	-8.522855e+02
5.300000e-07	-4.236234e-06	-1.278538e-08	-3.019163e+01	-8.403325e+02
5.400000e-07	-4.106411e-06	-1.259498e-08	-2.926638e+01	-8.280230e+02
5.500000e-07	-3.975009e-06	-1.240418e-08	-2.832988e+01	-8.153372e+02
5.600000e-07	-3.841969e-06	-1.219873e-08	-2.738170e+01	-8.022577e+02
5.700000e-07	-3.707421e-06	-1.198887e-08	-2.642278e+01	-7.887706e+02
5.800000e-07	-3.571543e-06	-1.178357e-08	-2.545438e+01	-7.748665e+02
5.900000e-07	-3.434378e-06	-1.156754e-08	-2.447680e+01	-7.605414e+02
6.000000e-07	-3.295854e-06	-1.134137e-08	-2.348954e+01	-7.457955e+02
6.100000e-07	-3.155881e-06	-1.111024e-08	-2.249196e+01	-7.306327e+02
6.200000e-07	-3.014534e-06	-1.087335e-08	-2.148457e+01	-7.150574e+02
6.300000e-07	-2.872001e-06	-1.062591e-08	-2.046874e+01	-6.990729e+02
6.400000e-07	-2.728369e-06	-1.037665e-08	-1.944508e+01	-6.826784e+02
6.500000e-07	-2.583717e-06	-1.012688e-08	-1.841415e+01	-6.658666e+02
6.600000e-07	-2.438027e-06	-9.865085e-09	-1.737582e+01	-6.486226e+02
6.700000e-07	-2.291437e-06	-9.589578e-09	-1.633107e+01	-6.309231e+02
6.800000e-07	-2.144207e-06	-9.307655e-09	-1.528176e+01	-6.127374e+02
6.900000e-07	-1.996320e-06	-9.021297e-09	-1.422777e+01	-5.940296e+02
7.000000e-07	-1.847717e-06	-8.723707e-09	-1.316868e+01	-5.747608e+02
7.100000e-07	-1.698533e-06	-8.419342e-09	-1.210544e+01	-5.548931e+02
7.200000e-07	-1.548888e-06	-8.106836e-09	-1.103892e+01	-5.343927e+02
7.300000e-07	-1.398765e-06	-7.783656e-09	-9.968997e+00	-5.132323e+02
7.400000e-07	-1.248197e-06	-7.449462e-09	-8.895901e+00	-4.913929e+02
7.500000e-07	-1.097252e-06	-7.107465e-09	-7.820109e+00	-4.688636e+02
7.600000e-07	-9.459040e-07	-6.759352e-09	-6.741455e+00	-4.456394e+02
7.700000e-07	-7.942346e-07	-6.396349e-09	-5.660508e+00	-4.217174e+02
7.800000e-07	-6.422800e-07	-6.019554e-09	-4.577528e+00	-3.970924e+02
7.900000e-07	-4.901227e-07	-5.633353e-09	-3.493104e+00	-3.717507e+02
8.000000e-07	-3.377939e-07	-5.236487e-09	-2.407457e+00	-3.456650e+02
8.100000e-07	-1.852540e-07	-4.822575e-09	-1.320305e+00	-3.187900e+02
8.200000e-07	-3.259520e-08	-4.393335e-09	-2.323059e-01	-2.910603e+02
8.300000e-07	1.201095e-07	-3.952623e-09	8.560204e-01	-2.623912e+02
8.400000e-07	2.728096e-07	-3.499601e-09	1.944313e+00	-2.326829e+02
8.500000e-07	4.254159e-07	-3.030720e-09	3.031938e+00	-2.018272e+02
8.600000e-07	5.778779e-07	-2.542359e-09	4.118534e+00	-1.697183e+02
8.700000e-07	7.301671e-07	-2.034390e-09	5.203899e+00	-1.362653e+02
8.800000e-07	8.821937e-07	-1.505121e-09	6.287392e+00	-1.014053e+02
8.900000e-07	1.033885e-06	-9.555597e-10	7.368497e+00	-6.511669e+01
9.000000e-07	1.185247e-06	-3.860250e-10	8.447252e+00	-2.743002e+01
9.100000e-07	1.336238e-06	2.033450e-10	9.523362e+00	1.156385e+01
9.200000e-07	1.486803e-06	8.129884e-10	1.059644e+01	5.171054e+01
9.300000e-07	1.636854e-06	1.439974e-09	1.166586e+01	9.279377e+01
9.400000e-07	1.786334e-06	2.078592e-09	1.273120e+01	1.345423e+02
9.500000e-07	1.935188e-06	2.723887e-09	1.379208e+01	1.766420e+02
9.600000e-07	2.083292e-06	3.369357e-09	1.484762e+01	2.187513e+02
9.700000e-07	2.230591e-06	4.008722e-09	1.589742e+01	2.605200e+02
9.800000e-07	2.377051e-06	4.636273e-09	1.694124e+01	3.016083e+02
9.900000e-07	2.522645e-06	5.243219e-09	1.797888e+01	3.417056e+02
1.000000e-06	2.667244e-06	5.826322e-09	1.900944e+01	3.805459e+02
1.010000e-06	2.810819e-06	6.388641e-09	2.003270e+01	4.179203e+02
1.020000e-06	2.953418e-06	6.928048e-09	2.104900e+01	4.536837e+02
1.030000e-06	3.094856e-06	7.441360e-09	2.205703e+01	4.877561e+02
1.040000e-06	3.234937e-06	7.930366e-09	2.305539e+01	5.201195e+02
1.050000e-06	3.373709e-06	8.395838e-09	2.404441e+01	5.508093e+02
1.060000e-06	3.511221e-06	8.837368e-09	2.502446e+01	5.799026e+02
1.070000e-06	3.647379e-06	9.258091e-09	2.599486e+01	6.075051e+02
1.080000e-06	3.782182e-06	9.661490e-09	2.695560e+01	6.337369e+02
1.090000e-06	3.915654e-06	1.004498e-08	2.790686e+01	6.587192e+02
1.100000e-06	4.047672e-06	1.040862e-08	2.884775e+01	6.825646e+02
1.110000e-06	4.178233e-06	1.075527e-08	2.977826e+01	7.053688e+02
1.120000e-06	4.307405e-06	1.108621e-08	3.069886e+01	7.272075e+02
1.130000e-06	4.435103e-06	1.140313e-08	3.160897e+01	7.481355e+02
1.140000e-06	4.561273e-06	1.170566e-08	3.250818e+01	7.681898e+02
1.150000e-06	4.685828e-06	1.199682e-08	3.339589e+01	7.873944e+02
1.160000e-06	4.808664e-06	1.227573e-08	3.427134e+01	8.057661e+02
1.170000e-06	4.929827e-06	1.253981e-08	3.513486e+01	8.233205e+02
1.180000e-06	5.049278e-06	1.279044e-08	3.598619e+01	8.400775e+02
1.190000e-06	5.166863e-06	1.303175e-08	3.682422e+01	8.560642e+02
1.200000e-06	5.282471e-06	1.326292e-08	3.764816e+01	8.713167e+02
1.210000e-06	5.396071e-06	1.348351e-08	3.845778e+01	8.858795e+02
1.220000e-06	5.507608e-06	1.369414e-08	3.925271e+01	8.998026e+02
1.230000e-06	5.617148e-06	1.389566e-08	4.003340e+01	9.131379e+02
1.240000e-06	5.724728e-06	1.408975e-08	4.080012e+01	9.259350e+02
1.250000e-06	5.830197e-06	1.427716e-08	4.155180e+01	9.382365e+02
1.260000e-06	5.933514e-06	1.445840e-08	4.228814e+01	9.500755e+02
1.270000e-06	6.034663e-06	1.463052e-08	4.300903e+01	9.614731e+02
1.280000e-06	6.133548e-06	1.479448e-08	4.371378e+01	9.724385e+02
1.290000e-06	6.230078e-06	1.495281e-08	4.440175e+01	9.829708e+02
1.300000e-06	6.324365e-06	1.510510e-08	4.507374e+01	9.930614e+02
1.310000e-06	6.416467e-06	1.525076e-08	4.573014e+01	1.002699e+03
1.320000e-06	6.506262e-06	1.538862e-08	4.637011e+01	1.011871e+03
1.330000e-06	6.593688e-06	1.552168e-08	4.699320e+01	1.020574e+03
1.340000e-06	6.678810e-06	1.565039e-08	4.759986e+01	1.028807e+03
1.350000e-06	6.761604e-06	1.577144e-08	4.818993e+01	1.036583e+03
1.360000e-06	6.841940e-06	1.588566e-08	4.876249e+01	1.043922e+03
1.370000e-06	6.919774e-06	1.599501e-08	4.931722e+01	1.050853e+03
1.380000e-06	6.995003e-06	1.609759e-08	4.985337e+01	1.057410e+03
1.390000e-06	7.067582e-06	1.619062e-08	5.037064e+01	1.063629e+03
1.400000e-06	7.137644e-06	1.627746e-08	5.086997e+01	1.069546e+03
1.410000e-06	7.205211e-06	1.636046e-08	5.135152e+01	1.075189e+03
1.420000e-06	7.270161e-06	1.643929e-08	5.181442e+01	1.080580e+03
1.430000e-06	7.332574e-06	1.651654e-08	5.225923e+01	1.085730e+03
1.440000e-06	7.392527e-06	1.659356e-08	5.268652e+01	1.090641e+03
1.450000e-06	7.449906e-06	1.666767e-08	5.309546e+01	1.095307e+03
1.460000e-06	7.504617e-06	1.673642e-08	5.348539e+01	1.099716e+03
1.470000e-06	7.556349e-06	1.679896e-08	5.385408e+01	1.103850e+03
1.480000e-06	7.604976e-06	1.685534e-08	5.420064e+01	1.107696e+03
1.490000e-06	7.650810e-06	1.690638e-08	5.452730e+01	1.111240e+03
1.500000e-06	7.694034e-06	1.695306e-08	5.483536e+01	1.114477e+03
1.510000e-06	7.734516e-06	1.699479e-08	5.512388e+01	1.117405e+03
1.520000e-06	7.772227e-06	1.703405e-08	5.539264e+01	1.120034e+03
1.530000e-06	7.807191e-06	1.707111e-08	5.564183e+01	1.122378e+03
1.540000e-06	7.839322e-06	1.710361e-08	5.587083e+01	1.124454e+03
1.550000e-06	7.868737e-06	1.713274e-08	5.608047e+01	1.126286e+03
1.560000e-06	7.895351e-06	1.715981e-08	5.627014e+01	1.127892e+03
1.570000e-06	7.918984e-06	1.718470e-08	5.643858e+01	1.129291e+03
1.580000e-06	7.939873e-06	1.720255e-08	5.658745e+01	1.130496e+03
1.590000e-06	7.958063e-06	1.721449e-08	5.671709e+01	1.131514e+03
1.600000e-06	7.973249e-06	1.722310e-08	5.682533e+01	1.132346e+03
1.610000e-06	7.985233e-06	1.722848e-08	5.691074e+01	1.132988e+03
1.620000e-06	7.994060e-06	1.723352e-08	5.697364e+01	1.133433e+03
1.630000e-06	8.000016e-06	1.723709e-08	5.701610e+01	1.133674e+03
1.640000e-06	8.003221e-06	1.724137e-08	5.703894e+01	1.133701e+03
1.650000e-06	8.003581e-06	1.724515e-08	5.704150e+01	1.133511e+03
1.660000e-06	8.001233e-06	1.723784e-08	5.702477e+01	1.133104e+03
1.670000e-06	7.996245e-06	1.723019e-08	5.698922e+01	1.132484e+03
1.680000e-06	7.988572e-06	1.721992e-08	5.693453e+01	1.131663e+03
1.690000e-06	7.978271e-06	1.720423e-08	5.686112e+01	1.130653e+03
1.700000e-06	7.965140e-06	1.718569e-08	5.676753e+01	1.129474e+03
1.710000e-06	7.949249e-06	1.716951e-08	5.665428e+01	1.128144e+03
1.720000e-06	7.931012e-06	1.715954e-08	5.652430e+01	1.126680e+03
1.730000e-06	7.910439e-06	1.709471e-08	5.637768e+01	1.125098e+03
1.740000e-06	7.886971e-06	1.701725e-08	5.621042e+01	1.123406e+03
1.750000e-06	7.860037e-06	1.704158e-08	5.601847e+01	1.121610e+03
1.760000e-06	7.829541e-06	1.703951e-08	5.580112e+01	1.119708e+03
1.770000e-06	7.796087e-06	1.699225e-08	5.556269e+01	1.117695e+03
1.780000e-06	7.760376e-06	1.699863e-08	5.530818e+01	1.115559e+03
1.790000e-06	7.722359e-06	1.699439e-08	5.503723e+01	1.113286e+03
1.800000e-06	7.682212e-06	1.685146e-08	5.475110e+01	1.110859e+03
1.810000e-06	7.639844e-06	1.686335e-08	5.444915e+01	1.108262e+03
1.820000e-06	7.594842e-06	1.685237e-08	5.412842e+01	1.105478e+03
1.830000e-06	7.547202e-06	1.676038e-08	5.378889e+01	1.102492e+03
1.840000e-06	7.496607e-06	1.683519e-08	5.342830e+01	1.099292e+03
1.850000e-06	7.442935e-06	1.672913e-08	5.304578e+01	1.095867e+03
1.860000e-06	7.386445e-06	1.672882e-08	5.264318e+01	1.092210e+03
1.870000e-06	7.327366e-06	1.665578e-08	5.222212e+01	1.088314e+03
1.880000e-06	7.265702e-06	1.649849e-08	5.178264e+01	1.084175e+03
1.890000e-06	7.201229e-06	1.651878e-08	5.132314e+01	1.079791e+03
1.900000e-06	7.134001e-06	1.638184e-08	5.084401e+01	1.075161e+03
1.910000e-06	7.064004e-06	1.632501e-08	5.034514e+01	1.070285e+03
1.920000e-06	6.991209e-06	1.627442e-08	4.982633e+01	1.065165e+03
1.930000e-06	6.915764e-06	1.620606e-08	4.928864e+01	1.059803e+03
1.940000e-06	6.837529e-06	1.611975e-08	4.873105e+01	1.054203e+03
1.950000e-06	6.756655e-06	1.597434e-08	4.815466e+01	1.048370e+03
1.960000e-06	6.673404e-06	1.595146e-08	4.756134e+01	1.042307e+03
1.970000e-06	6.587695e-06	1.581347e-08	4.695049e+01	1.036018e+03
1.980000e-06	6.499495e-06	1.571733e-08	4.632188e+01	1.029508e+03
1.990000e-06	6.408946e-06	1.564061e-08	4.567654e+01	1.022776e+03
2.000000e-06	6.316213e-06	1.552994e-08	4.501563e+01	1.015824e+03
2.010000e-06	6.221178e-06	1.540525e-08	4.433832e+01	1.008648e+03
2.020000e-06	6.123885e-06	1.526923e-08	4.364491e+01	1.001244e+03
2.030000e-06	6.024490e-06	1.519171e-08	4.293653e+01	9.936047e+02
2.040000e-06	5.922965e-06	1.506811e-08	4.221296e+01	9.857217e+02
2.050000e-06	5.819270e-06	1.494714e-08	4.147392e+01	9.775863e+02
2.060000e-06	5.713565e-06	1.481115e-08	4.072056e+01	9.691903e+02
2.070000e-06	5.606007e-06	1.469324e-08	3.995400e+01	9.605265e+02
2.080000e-06	5.496475e-06	1.453131e-08	3.917337e+01	9.515895e+02
2.090000e-06	5.384821e-06	1.437503e-08	3.837761e+01	9.423759e+02
2.100000e-06	5.271103e-06	1.424596e-08	3.756713e+01	9.328844e+02
2.110000e-06	5.155442e-06	1.409232e-08	3.674282e+01	9.231146e+02
2.120000e-06	5.037787e-06	1.394171e-08	3.590430e+01	9.130664e+02
2.130000e-06	4.918177e-06	1.380035e-08	3.505184e+01	9.027389e+02
2.140000e-06	4.796733e-06	1.365990e-08	3.418631e+01	8.921286e+02
2.150000e-06	4.673583e-06	1.347924e-08	3.330862e+01	8.812293e+02
2.160000e-06	4.548797e-06	1.329477e-08	3.241926e+01	8.700306e+02
2.170000e-06	4.422390e-06	1.311442e-08	3.151836e+01	8.585183e+02
2.180000e-06	4.294311e-06	1.294041e-08	3.060554e+01	8.466751e+02
2.190000e-06	4.164551e-06	1.275092e-08	2.968074e+01	8.344817e+02
2.200000e-06	4.033275e-06	1.256619e-08	2.874514e+01	8.219182e+02
2.210000e-06	3.900608e-06	1.237114e-08	2.779963e+01	8.089664e+02
2.220000e-06	3.766459e-06	1.216061e-08	2.684355e+01	7.956109e+02
2.230000e-06	3.630718e-06	1.195174e-08	2.587612e+01	7.818408e+02
2.240000e-06	3.493612e-06	1.174585e-08	2.489897e+01	7.676506e+02
2.250000e-06	3.355275e-06	1.153219e-08	2.391304e+01	7.530390e+02
2.260000e-06	3.215686e-06	1.129923e-08	2.291819e+01	7.380091e+02
2.270000e-06	3.074868e-06	1.106166e-08	2.191458e+01	7.225652e+02
2.280000e-06	2.932819e-06	1.081601e-08	2.090219e+01	7.067115e+02
2.290000e-06	2.789588e-06	1.056425e-08	1.988139e+01	6.904486e+02
2.300000e-06	2.645278e-06	1.030553e-08	1.885289e+01	6.737715e+02
2.310000e-06	2.500064e-06	1.004672e-08	1.781795e+01	6.566679e+02
2.320000e-06	2.354005e-06	9.779960e-09	1.677698e+01	6.391171e+02
2.330000e-06	2.207156e-06	9.508342e-09	1.573040e+01	6.210909e+02
2.340000e-06	2.059612e-06	9.234675e-09	1.467885e+01	6.025544e+02
2.350000e-06	1.911341e-06	8.947936e-09	1.362212e+01	5.834695e+02
2.360000e-06	1.762387e-06	8.643603e-09	1.256053e+01	5.637976e+02
2.370000e-06	1.612891e-06	8.326493e-09	1.149507e+01	5.435033e+02
2.380000e-06	1.462989e-06	8.004492e-09	1.042672e+01	5.225568e+02
2.390000e-06	1.312749e-06	7.677096e-09	9.355958e+00	5.009366e+02
2.400000e-06	1.162125e-06	7.338527e-09	8.282459e+00	4.786292e+02
2.410000e-06	1.011028e-06	6.990562e-09	7.205591e+00	4.556280e+02
2.420000e-06	8.594383e-07	6.632170e-09	6.125215e+00	4.319300e+02
2.430000e-06	7.074300e-07	6.260898e-09	5.041852e+00	4.075313e+02
2.440000e-06	5.551329e-07	5.882229e-09	3.956431e+00	3.824216e+02
2.450000e-06	4.025837e-07	5.494109e-09	2.869213e+00	3.565784e+02
2.460000e-06	2.498119e-07	5.089605e-09	1.780409e+00	3.299626e+02
2.470000e-06	9.696145e-08	4.662979e-09	6.910440e-01	3.025153e+02
2.480000e-06	-5.592848e-08	4.220777e-09	-3.986021e-01	2.741578e+02
2.490000e-06	-2.088296e-07	3.768839e-09	-1.488328e+00	2.447945e+02
2.500000e-06	-3.616280e-07	3.302505e-09	-2.577322e+00	2.143188e+02
2.510000e-06	-5.142928e-07	2.820068e-09	-3.665364e+00	1.826230e+02
2.520000e-06	-6.668240e-07	2.316787e-09	-4.752453e+00	1.496099e+02
2.530000e-06	-8.190661e-07	1.791695e-09	-5.837482e+00	1.152061e+02
2.540000e-06	-9.709058e-07	1.248860e-09	-6.919643e+00	7.937536e+01
2.550000e-06	-1.122321e-06	6.869277e-10	-7.998778e+00	4.213050e+01
2.560000e-06	-1.273294e-06	1.023136e-10	-9.074767e+00	3.542392e+00
2.570000e-06	-1.423782e-06	-5.066146e-10	-1.014729e+01	-3.625510e+01
2.580000e-06	-1.573828e-06	-1.135029e-09	-1.121667e+01	-7.706508e+01
2.590000e-06	-1.723458e-06	-1.775890e-09	-1.228308e+01	-1.186329e+02
2.600000e-06	-1.872513e-06	-2.421700e-09	-1.334539e+01	-1.606567e+02
2.610000e-06	-2.020760e-06	-3.067185e-09	-1.440195e+01	-2.028017e+02
2.620000e-06	-2.168165e-06	-3.709953e-09	-1.545251e+01	-2.447185e+02
2.630000e-06	-2.314793e-06	-4.343839e-09	-1.649753e+01	-2.860617e+02
2.640000e-06	-2.460604e-06	-4.964203e-09	-1.753672e+01	-3.265096e+02
2.650000e-06	-2.605563e-06	-5.563411e-09	-1.856984e+01	-3.657803e+02
2.660000e-06	-2.749452e-06	-6.140540e-09	-1.959534e+01	-4.036456e+02
2.670000e-06	-2.892128e-06	-6.697614e-09	-2.061219e+01	-4.399392e+02
2.680000e-06	-3.033668e-06	-7.229872e-09	-2.162094e+01	-4.745606e+02
2.690000e-06	-3.174049e-06	-7.732852e-09	-2.262144e+01	-5.074725e+02
2.700000e-06	-3.313199e-06	-8.207831e-09	-2.361316e+01	-5.386942e+02
2.710000e-06	-3.451121e-06	-8.658721e-09	-2.459613e+01	-5.682908e+02
2.720000e-06	-3.587758e-06	-9.087542e-09	-2.556995e+01	-5.963605e+02
2.730000e-06	-3.722959e-06	-9.498373e-09	-2.653352e+01	-6.230201e+02
2.740000e-06	-3.856789e-06	-9.892951e-09	-2.748733e+01	-6.483918e+02
2.750000e-06	-3.989304e-06	-1.026936e-08	-2.843176e+01	-6.725920e+02
2.760000e-06	-4.120443e-06	-1.062481e-08	-2.936639e+01	-6.957222e+02
2.770000e-06	-4.250222e-06	-1.096340e-08	-3.029132e+01	-7.178649e+02
2.780000e-06	-4.378549e-06	-1.128843e-08	-3.120591e+01	-7.390815e+02
2.790000e-06	-4.505272e-06	-1.159847e-08	-3.210906e+01	-7.594141e+02
2.800000e-06	-4.630476e-06	-1.189373e-08	-3.300139e+01	-7.788905e+02
2.810000e-06	-4.754098e-06	-1.217607e-08	-3.388245e+01	-7.975289e+02
2.820000e-06	-4.875967e-06	-1.244576e-08	-3.475100e+01	-8.153448e+02
2.830000e-06	-4.996072e-06	-1.270377e-08	-3.560699e+01	-8.323561e+02
2.840000e-06	-5.114318e-06	-1.295283e-08	-3.644973e+01	-8.485875e+02
2.850000e-06	-5.230587e-06	-1.319237e-08	-3.727838e+01	-8.640722e+02
2.860000e-06	-5.344649e-06	-1.342122e-08	-3.809130e+01	-8.788521e+02
2.870000e-06	-5.456529e-06	-1.364024e-08	-3.888867e+01	-8.929758e+02
2.880000e-06	-5.566398e-06	-1.385085e-08	-3.967171e+01	-9.064951e+02
2.890000e-06	-5.674283e-06	-1.405440e-08	-4.044060e+01	-9.194607e+02
2.900000e-06	-5.780205e-06	-1.424877e-08	-4.119551e+01	-9.319181e+02
2.910000e-06	-5.884029e-06	-1.443289e-08	-4.193546e+01	-9.439036e+02
2.920000e-06	-5.985648e-06	-1.460840e-08	-4.265970e+01	-9.554421e+02
2.930000e-06	-6.085035e-06	-1.477712e-08	-4.336803e+01	-9.665467e+02
2.940000e-06	-6.182256e-06	-1.493883e-08	-4.406092e+01	-9.772195e+02
