# Temperatura_=_25.61
# Concentracion g/m^3_=_15000.0
# C_Vs_to_Am_M_A/Vsm_=_65563218390.804596
# pendiente_HvsI_1/m_=_3716.3
# ordenada_HvsI_A/m_=_1297.0
# frecuencia_Hz_=_302441.37655641424

Tiempo_(s)	Campo_(V.s)	Magnetizacion_(V.s)	Campo_(kA/m)	Magnetizacion_(A/m)
0.000000e+00	-8.019179e-06	-1.587398e-08	-5.690319e+01	-1.037885e+03
1.000000e-08	-8.016164e-06	-1.587256e-08	-5.688179e+01	-1.037555e+03
2.000000e-08	-8.010475e-06	-1.586500e-08	-5.684143e+01	-1.037030e+03
3.000000e-08	-8.002221e-06	-1.585367e-08	-5.678286e+01	-1.036313e+03
4.000000e-08	-7.991172e-06	-1.584109e-08	-5.670445e+01	-1.035414e+03
5.000000e-08	-7.977158e-06	-1.582859e-08	-5.660502e+01	-1.034347e+03
6.000000e-08	-7.960283e-06	-1.581117e-08	-5.648527e+01	-1.033130e+03
7.000000e-08	-7.940972e-06	-1.578981e-08	-5.634824e+01	-1.031781e+03
8.000000e-08	-7.919287e-06	-1.577169e-08	-5.619437e+01	-1.030316e+03
9.000000e-08	-7.894663e-06	-1.576749e-08	-5.601964e+01	-1.028752e+03
1.000000e-07	-7.866779e-06	-1.574367e-08	-5.582177e+01	-1.027098e+03
1.100000e-07	-7.835862e-06	-1.569592e-08	-5.560240e+01	-1.025360e+03
1.200000e-07	-7.802162e-06	-1.565650e-08	-5.536326e+01	-1.023538e+03
1.300000e-07	-7.765828e-06	-1.562427e-08	-5.510544e+01	-1.021626e+03
1.400000e-07	-7.727128e-06	-1.558070e-08	-5.483083e+01	-1.019614e+03
1.500000e-07	-7.686255e-06	-1.553354e-08	-5.454080e+01	-1.017487e+03
1.600000e-07	-7.642988e-06	-1.551607e-08	-5.423378e+01	-1.015228e+03
1.700000e-07	-7.596996e-06	-1.546944e-08	-5.390743e+01	-1.012820e+03
1.800000e-07	-7.548233e-06	-1.540276e-08	-5.356141e+01	-1.010246e+03
1.900000e-07	-7.496419e-06	-1.537180e-08	-5.319375e+01	-1.007488e+03
2.000000e-07	-7.441645e-06	-1.532508e-08	-5.280508e+01	-1.004533e+03
2.100000e-07	-7.384191e-06	-1.525794e-08	-5.239739e+01	-1.001369e+03
2.200000e-07	-7.324018e-06	-1.521123e-08	-5.197040e+01	-9.979875e+02
2.300000e-07	-7.261211e-06	-1.517775e-08	-5.152473e+01	-9.943824e+02
2.400000e-07	-7.195689e-06	-1.510985e-08	-5.105980e+01	-9.905505e+02
2.500000e-07	-7.127428e-06	-1.502665e-08	-5.057542e+01	-9.864911e+02
2.600000e-07	-7.056521e-06	-1.497654e-08	-5.007228e+01	-9.822057e+02
2.700000e-07	-6.982786e-06	-1.489799e-08	-4.954906e+01	-9.776973e+02
2.800000e-07	-6.906154e-06	-1.480378e-08	-4.900529e+01	-9.729705e+02
2.900000e-07	-6.826691e-06	-1.473543e-08	-4.844143e+01	-9.680305e+02
3.000000e-07	-6.744633e-06	-1.466649e-08	-4.785915e+01	-9.628827e+02
3.100000e-07	-6.660330e-06	-1.458723e-08	-4.726095e+01	-9.575322e+02
3.200000e-07	-6.573791e-06	-1.450598e-08	-4.664688e+01	-9.519833e+02
3.300000e-07	-6.484900e-06	-1.442598e-08	-4.601612e+01	-9.462386e+02
3.400000e-07	-6.393619e-06	-1.432975e-08	-4.536840e+01	-9.402987e+02
3.500000e-07	-6.300023e-06	-1.423259e-08	-4.470425e+01	-9.341620e+02
3.600000e-07	-6.204140e-06	-1.413435e-08	-4.402388e+01	-9.278241e+02
3.700000e-07	-6.105933e-06	-1.403520e-08	-4.332701e+01	-9.212786e+02
3.800000e-07	-6.005503e-06	-1.393194e-08	-4.261437e+01	-9.145170e+02
3.900000e-07	-5.902983e-06	-1.382099e-08	-4.188690e+01	-9.075299e+02
4.000000e-07	-5.798450e-06	-1.371426e-08	-4.114515e+01	-9.003072e+02
4.100000e-07	-5.691860e-06	-1.359856e-08	-4.038880e+01	-8.928396e+02
4.200000e-07	-5.583236e-06	-1.347211e-08	-3.961801e+01	-8.851192e+02
4.300000e-07	-5.472694e-06	-1.334829e-08	-3.883362e+01	-8.771400e+02
4.400000e-07	-5.360120e-06	-1.322890e-08	-3.803481e+01	-8.688985e+02
4.500000e-07	-5.245372e-06	-1.309778e-08	-3.722057e+01	-8.603933e+02
4.600000e-07	-5.128569e-06	-1.296429e-08	-3.639175e+01	-8.516245e+02
4.700000e-07	-5.009892e-06	-1.283414e-08	-3.554963e+01	-8.425929e+02
4.800000e-07	-4.889415e-06	-1.269358e-08	-3.469474e+01	-8.332988e+02
4.900000e-07	-4.767206e-06	-1.254462e-08	-3.382756e+01	-8.237407e+02
5.000000e-07	-4.643252e-06	-1.239418e-08	-3.294799e+01	-8.139139e+02
5.100000e-07	-4.517639e-06	-1.223872e-08	-3.205666e+01	-8.038102e+02
5.200000e-07	-4.390386e-06	-1.207306e-08	-3.115369e+01	-7.934172e+02
5.300000e-07	-4.261535e-06	-1.190493e-08	-3.023937e+01	-7.827189e+02
5.400000e-07	-4.131124e-06	-1.173494e-08	-2.931399e+01	-7.716964e+02
5.500000e-07	-3.999139e-06	-1.155965e-08	-2.837744e+01	-7.603294e+02
5.600000e-07	-3.865679e-06	-1.137795e-08	-2.743042e+01	-7.485979e+02
5.700000e-07	-3.730746e-06	-1.119631e-08	-2.647295e+01	-7.364841e+02
5.800000e-07	-3.594362e-06	-1.100963e-08	-2.550519e+01	-7.239739e+02
5.900000e-07	-3.456595e-06	-1.081136e-08	-2.452761e+01	-7.110582e+02
6.000000e-07	-3.317462e-06	-1.060711e-08	-2.354034e+01	-6.977329e+02
6.100000e-07	-3.176866e-06	-1.039860e-08	-2.254268e+01	-6.839984e+02
6.200000e-07	-3.034841e-06	-1.018208e-08	-2.153489e+01	-6.698588e+02
6.300000e-07	-2.891630e-06	-9.957367e-09	-2.051868e+01	-6.553193e+02
6.400000e-07	-2.747319e-06	-9.730146e-09	-1.949467e+01	-6.403842e+02
6.500000e-07	-2.601992e-06	-9.496390e-09	-1.846345e+01	-6.250543e+02
6.600000e-07	-2.455789e-06	-9.252262e-09	-1.742600e+01	-6.093244e+02
6.700000e-07	-2.308752e-06	-9.003257e-09	-1.638265e+01	-5.931824e+02
6.800000e-07	-2.160963e-06	-8.751205e-09	-1.533395e+01	-5.766086e+02
6.900000e-07	-2.012461e-06	-8.490668e-09	-1.428019e+01	-5.595759e+02
7.000000e-07	-1.863321e-06	-8.219040e-09	-1.322192e+01	-5.420520e+02
7.100000e-07	-1.713684e-06	-7.943247e-09	-1.216011e+01	-5.240019e+02
7.200000e-07	-1.563570e-06	-7.662625e-09	-1.109492e+01	-5.053907e+02
7.300000e-07	-1.412884e-06	-7.371560e-09	-1.002566e+01	-4.861869e+02
7.400000e-07	-1.261569e-06	-7.067782e-09	-8.951952e+00	-4.663651e+02
7.500000e-07	-1.109769e-06	-6.752779e-09	-7.874798e+00	-4.459073e+02
7.600000e-07	-9.576217e-07	-6.429323e-09	-6.795175e+00	-4.248036e+02
7.700000e-07	-8.051797e-07	-6.097766e-09	-5.713464e+00	-4.030502e+02
7.800000e-07	-6.524759e-07	-5.758296e-09	-4.629896e+00	-3.806476e+02
7.900000e-07	-4.996075e-07	-5.410048e-09	-3.545158e+00	-3.575954e+02
8.000000e-07	-3.466203e-07	-5.051524e-09	-2.459579e+00	-3.338885e+02
8.100000e-07	-1.934643e-07	-4.677834e-09	-1.372801e+00	-3.095123e+02
8.200000e-07	-4.017070e-08	-4.290021e-09	-2.850468e-01	-2.844387e+02
8.300000e-07	1.131785e-07	-3.891912e-09	8.031017e-01	-2.586238e+02
8.400000e-07	2.665407e-07	-3.484832e-09	1.891343e+00	-2.320086e+02
8.500000e-07	4.198806e-07	-3.067277e-09	2.979426e+00	-2.045213e+02
8.600000e-07	5.730636e-07	-2.635398e-09	4.066395e+00	-1.760826e+02
8.700000e-07	7.260550e-07	-2.186791e-09	5.152005e+00	-1.466143e+02
8.800000e-07	8.788374e-07	-1.722792e-09	6.236131e+00	-1.160485e+02
8.900000e-07	1.031311e-06	-1.243011e-09	7.318067e+00	-8.433846e+01
9.000000e-07	1.183469e-06	-7.454053e-10	8.397765e+00	-5.146936e+01
9.100000e-07	1.335270e-06	-2.315017e-10	9.474928e+00	-1.746699e+01
9.200000e-07	1.486620e-06	3.003380e-10	1.054889e+01	1.759553e+01
9.300000e-07	1.637367e-06	8.481948e-10	1.161857e+01	5.359477e+01
9.400000e-07	1.787404e-06	1.406646e-09	1.268322e+01	9.035793e+01
9.500000e-07	1.936781e-06	1.972967e-09	1.374318e+01	1.276681e+02
9.600000e-07	2.085468e-06	2.545643e-09	1.479825e+01	1.652735e+02
9.700000e-07	2.233409e-06	3.121826e-09	1.584802e+01	2.028995e+02
9.800000e-07	2.380541e-06	3.694547e-09	1.689205e+01	2.402634e+02
9.900000e-07	2.526729e-06	4.256962e-09	1.792938e+01	2.770895e+02
1.000000e-06	2.671938e-06	4.804822e-09	1.895977e+01	3.131239e+02
1.010000e-06	2.816248e-06	5.335702e-09	1.998378e+01	3.481468e+02
1.020000e-06	2.959511e-06	5.848013e-09	2.100035e+01	3.819823e+02
1.030000e-06	3.101537e-06	6.339241e-09	2.200816e+01	4.145039e+02
1.040000e-06	3.242272e-06	6.810446e-09	2.300680e+01	4.456362e+02
1.050000e-06	3.381714e-06	7.258413e-09	2.399626e+01	4.753520e+02
1.060000e-06	3.519928e-06	7.682594e-09	2.497701e+01	5.036664e+02
1.070000e-06	3.656802e-06	8.091474e-09	2.594825e+01	5.306278e+02
1.080000e-06	3.792257e-06	8.486766e-09	2.690943e+01	5.563075e+02
1.090000e-06	3.926368e-06	8.862761e-09	2.786106e+01	5.807894e+02
1.100000e-06	4.059092e-06	9.218211e-09	2.880286e+01	6.041599e+02
1.110000e-06	4.190264e-06	9.557524e-09	2.973364e+01	6.265002e+02
1.120000e-06	4.319972e-06	9.883227e-09	3.065403e+01	6.478804e+02
1.130000e-06	4.448233e-06	1.019571e-08	3.156416e+01	6.683569e+02
1.140000e-06	4.574911e-06	1.049346e-08	3.246305e+01	6.879723e+02
1.150000e-06	4.700035e-06	1.077658e-08	3.335092e+01	7.067572e+02
1.160000e-06	4.823563e-06	1.104599e-08	3.422746e+01	7.247340e+02
1.170000e-06	4.945392e-06	1.130277e-08	3.509194e+01	7.419211e+02
1.180000e-06	5.065463e-06	1.154915e-08	3.594395e+01	7.583369e+02
1.190000e-06	5.183724e-06	1.178706e-08	3.678312e+01	7.740040e+02
1.200000e-06	5.300038e-06	1.201566e-08	3.760847e+01	7.889506e+02
1.210000e-06	5.414282e-06	1.223395e-08	3.841913e+01	8.032112e+02
1.220000e-06	5.526392e-06	1.243968e-08	3.921465e+01	8.168261e+02
1.230000e-06	5.636515e-06	1.263453e-08	3.999607e+01	8.298382e+02
1.240000e-06	5.744703e-06	1.282159e-08	4.076377e+01	8.422909e+02
1.250000e-06	5.850795e-06	1.300205e-08	4.151658e+01	8.542239e+02
1.260000e-06	5.954692e-06	1.317604e-08	4.225382e+01	8.656704e+02
1.270000e-06	6.056387e-06	1.334236e-08	4.297544e+01	8.766551e+02
1.280000e-06	6.155861e-06	1.350371e-08	4.368129e+01	8.871933e+02
1.290000e-06	6.252990e-06	1.365930e-08	4.437051e+01	8.972912e+02
1.300000e-06	6.347852e-06	1.380701e-08	4.504364e+01	9.069478e+02
1.310000e-06	6.440480e-06	1.394671e-08	4.570092e+01	9.161579e+02
1.320000e-06	6.530762e-06	1.407809e-08	4.634155e+01	9.249150e+02
1.330000e-06	6.618652e-06	1.420540e-08	4.696521e+01	9.332156e+02
1.340000e-06	6.704281e-06	1.432651e-08	4.757282e+01	9.410616e+02
1.350000e-06	6.787639e-06	1.443819e-08	4.816432e+01	9.484623e+02
1.360000e-06	6.868468e-06	1.454283e-08	4.873787e+01	9.554357e+02
1.370000e-06	6.946733e-06	1.464212e-08	4.929324e+01	9.620077e+02
1.380000e-06	7.022479e-06	1.473851e-08	4.983072e+01	9.682100e+02
1.390000e-06	7.095587e-06	1.482944e-08	5.034949e+01	9.740780e+02
1.400000e-06	7.166094e-06	1.491464e-08	5.084979e+01	9.796466e+02
1.410000e-06	7.234098e-06	1.499368e-08	5.133235e+01	9.849475e+02
1.420000e-06	7.299480e-06	1.506735e-08	5.179629e+01	9.900059e+02
1.430000e-06	7.362261e-06	1.513990e-08	5.224178e+01	9.948383e+02
1.440000e-06	7.422583e-06	1.521013e-08	5.266981e+01	9.994518e+02
1.450000e-06	7.480270e-06	1.527809e-08	5.307915e+01	1.003844e+03
1.460000e-06	7.535244e-06	1.534200e-08	5.346924e+01	1.008006e+03
1.470000e-06	7.587311e-06	1.540095e-08	5.383870e+01	1.011923e+03
1.480000e-06	7.636293e-06	1.545525e-08	5.418627e+01	1.015577e+03
1.490000e-06	7.682500e-06	1.550462e-08	5.451415e+01	1.018954e+03
1.500000e-06	7.725998e-06	1.554961e-08	5.482281e+01	1.022041e+03
1.510000e-06	7.766652e-06	1.558871e-08	5.511129e+01	1.024834e+03
1.520000e-06	7.804546e-06	1.562478e-08	5.538018e+01	1.027335e+03
1.530000e-06	7.839754e-06	1.565830e-08	5.563001e+01	1.029554e+03
1.540000e-06	7.872190e-06	1.568797e-08	5.586017e+01	1.031507e+03
1.550000e-06	7.901878e-06	1.571259e-08	5.607083e+01	1.033214e+03
1.560000e-06	7.928753e-06	1.573349e-08	5.626154e+01	1.034700e+03
1.570000e-06	7.952645e-06	1.575513e-08	5.643107e+01	1.035985e+03
1.580000e-06	7.973714e-06	1.577508e-08	5.658057e+01	1.037090e+03
1.590000e-06	7.991964e-06	1.579023e-08	5.671008e+01	1.038027e+03
1.600000e-06	8.007238e-06	1.580106e-08	5.681846e+01	1.038806e+03
1.610000e-06	8.019498e-06	1.580819e-08	5.690546e+01	1.039428e+03
1.620000e-06	8.028634e-06	1.581381e-08	5.697028e+01	1.039888e+03
1.630000e-06	8.034801e-06	1.581848e-08	5.701404e+01	1.040181e+03
1.640000e-06	8.038168e-06	1.582113e-08	5.703793e+01	1.040295e+03
1.650000e-06	8.038671e-06	1.582023e-08	5.704150e+01	1.040222e+03
1.660000e-06	8.036481e-06	1.581464e-08	5.702596e+01	1.039955e+03
1.670000e-06	8.031698e-06	1.580790e-08	5.699202e+01	1.039492e+03
1.680000e-06	8.024187e-06	1.580054e-08	5.693873e+01	1.038835e+03
1.690000e-06	8.014001e-06	1.579070e-08	5.686645e+01	1.037993e+03
1.700000e-06	8.000978e-06	1.577633e-08	5.677404e+01	1.036978e+03
1.710000e-06	7.985113e-06	1.575808e-08	5.666146e+01	1.035807e+03
1.720000e-06	7.966854e-06	1.573630e-08	5.653190e+01	1.034497e+03
1.730000e-06	7.946324e-06	1.570514e-08	5.638622e+01	1.033068e+03
1.740000e-06	7.922955e-06	1.566043e-08	5.622040e+01	1.031534e+03
1.750000e-06	7.896087e-06	1.564734e-08	5.602974e+01	1.029907e+03
1.760000e-06	7.865613e-06	1.564172e-08	5.581351e+01	1.028196e+03
1.770000e-06	7.832117e-06	1.561431e-08	5.557582e+01	1.026401e+03
1.780000e-06	7.796259e-06	1.558403e-08	5.532138e+01	1.024519e+03
1.790000e-06	7.758112e-06	1.556145e-08	5.505069e+01	1.022540e+03
1.800000e-06	7.717883e-06	1.551980e-08	5.476523e+01	1.020451e+03
1.810000e-06	7.675447e-06	1.548369e-08	5.446411e+01	1.018236e+03
1.820000e-06	7.630332e-06	1.547456e-08	5.414397e+01	1.015878e+03
1.830000e-06	7.582556e-06	1.543486e-08	5.380496e+01	1.013358e+03
1.840000e-06	7.531928e-06	1.541819e-08	5.344571e+01	1.010661e+03
1.850000e-06	7.478302e-06	1.538655e-08	5.306518e+01	1.007770e+03
1.860000e-06	7.421859e-06	1.533809e-08	5.266467e+01	1.004674e+03
1.870000e-06	7.362730e-06	1.527423e-08	5.224511e+01	1.001363e+03
1.880000e-06	7.300930e-06	1.519058e-08	5.180658e+01	9.978299e+02
1.890000e-06	7.236301e-06	1.516565e-08	5.134797e+01	9.940707e+02
1.900000e-06	7.168864e-06	1.510026e-08	5.086945e+01	9.900840e+02
1.910000e-06	7.098611e-06	1.503400e-08	5.037094e+01	9.858706e+02
1.920000e-06	7.025625e-06	1.498827e-08	4.985304e+01	9.814331e+02
1.930000e-06	6.949986e-06	1.491158e-08	4.931632e+01	9.767756e+02
1.940000e-06	6.871471e-06	1.483945e-08	4.875919e+01	9.719031e+02
1.950000e-06	6.790346e-06	1.474841e-08	4.818353e+01	9.668211e+02
1.960000e-06	6.706870e-06	1.467837e-08	4.759119e+01	9.615349e+02
1.970000e-06	6.620885e-06	1.458788e-08	4.698105e+01	9.560491e+02
1.980000e-06	6.532392e-06	1.449661e-08	4.635312e+01	9.503668e+02
1.990000e-06	6.441605e-06	1.441738e-08	4.570891e+01	9.444893e+02
2.000000e-06	6.348626e-06	1.432749e-08	4.504914e+01	9.384158e+02
2.010000e-06	6.253317e-06	1.423677e-08	4.437283e+01	9.321428e+02
2.020000e-06	6.155701e-06	1.412945e-08	4.368016e+01	9.256646e+02
2.030000e-06	6.055906e-06	1.403593e-08	4.297203e+01	9.189731e+02
2.040000e-06	5.953959e-06	1.392455e-08	4.224862e+01	9.120592e+02
2.050000e-06	5.849854e-06	1.381379e-08	4.150991e+01	9.049129e+02
2.060000e-06	5.743754e-06	1.370481e-08	4.075703e+01	8.975246e+02
2.070000e-06	5.635778e-06	1.358969e-08	3.999085e+01	8.898858e+02
2.080000e-06	5.525794e-06	1.346359e-08	3.921041e+01	8.819900e+02
2.090000e-06	5.413713e-06	1.333432e-08	3.841510e+01	8.738327e+02
2.100000e-06	5.299608e-06	1.321150e-08	3.760542e+01	8.654119e+02
2.110000e-06	5.183536e-06	1.307830e-08	3.678178e+01	8.567274e+02
2.120000e-06	5.065403e-06	1.294830e-08	3.594353e+01	8.477798e+02
2.130000e-06	4.945299e-06	1.281545e-08	3.509129e+01	8.385698e+02
2.140000e-06	4.823420e-06	1.267547e-08	3.422644e+01	8.290965e+02
2.150000e-06	4.699808e-06	1.252137e-08	3.334931e+01	8.193564e+02
2.160000e-06	4.574479e-06	1.236688e-08	3.245999e+01	8.093425e+02
2.170000e-06	4.447475e-06	1.221035e-08	3.155878e+01	7.990438e+02
2.180000e-06	4.318869e-06	1.204837e-08	3.064621e+01	7.884452e+02
2.190000e-06	4.188677e-06	1.188105e-08	2.972238e+01	7.775287e+02
2.200000e-06	4.056958e-06	1.171223e-08	2.878772e+01	7.662743e+02
2.210000e-06	3.923789e-06	1.153798e-08	2.784276e+01	7.546616e+02
2.220000e-06	3.789114e-06	1.135504e-08	2.688713e+01	7.426721e+02
2.230000e-06	3.652895e-06	1.116718e-08	2.592053e+01	7.302903e+02
2.240000e-06	3.515323e-06	1.097161e-08	2.494433e+01	7.175053e+02
2.250000e-06	3.376501e-06	1.076903e-08	2.395927e+01	7.043113e+02
2.260000e-06	3.236402e-06	1.056228e-08	2.296514e+01	6.907077e+02
2.270000e-06	3.095034e-06	1.035518e-08	2.196201e+01	6.766974e+02
2.280000e-06	2.952371e-06	1.013936e-08	2.094969e+01	6.622855e+02
2.290000e-06	2.808520e-06	9.913785e-09	1.992894e+01	6.474769e+02
2.300000e-06	2.663664e-06	9.681581e-09	1.890106e+01	6.322738e+02
2.310000e-06	2.517966e-06	9.444123e-09	1.786721e+01	6.166730e+02
2.320000e-06	2.371434e-06	9.200161e-09	1.682743e+01	6.006650e+02
2.330000e-06	2.223990e-06	8.952116e-09	1.578119e+01	5.842322e+02
2.340000e-06	2.075769e-06	8.697208e-09	1.472942e+01	5.673499e+02
2.350000e-06	1.926915e-06	8.429606e-09	1.367317e+01	5.499873e+02
2.360000e-06	1.777454e-06	8.152129e-09	1.261261e+01	5.321099e+02
2.370000e-06	1.627366e-06	7.869296e-09	1.154761e+01	5.136823e+02
2.380000e-06	1.476761e-06	7.580388e-09	1.047893e+01	4.946717e+02
2.390000e-06	1.325741e-06	7.283656e-09	9.407307e+00	4.750506e+02
2.400000e-06	1.174261e-06	6.977958e-09	8.332420e+00	4.547983e+02
2.410000e-06	1.022344e-06	6.663322e-09	7.254441e+00	4.339025e+02
2.420000e-06	8.700849e-07	6.338740e-09	6.174024e+00	4.123577e+02
2.430000e-06	7.174693e-07	6.000635e-09	5.091081e+00	3.901632e+02
2.440000e-06	5.645586e-07	5.652260e-09	4.006044e+00	3.673197e+02
2.450000e-06	4.114369e-07	5.293884e-09	2.919510e+00	3.438240e+02
2.460000e-06	2.581556e-07	4.924535e-09	1.831843e+00	3.196649e+02
2.470000e-06	1.048163e-07	4.544613e-09	7.437643e-01	2.948191e+02
2.480000e-06	-4.856795e-08	4.155374e-09	-3.446327e-01	2.692478e+02
2.490000e-06	-2.019393e-07	3.755129e-09	-1.432938e+00	2.428968e+02
2.500000e-06	-3.552554e-07	3.337555e-09	-2.520852e+00	2.156979e+02
2.510000e-06	-5.084595e-07	2.904264e-09	-3.607971e+00	1.875734e+02
2.520000e-06	-6.614785e-07	2.457376e-09	-4.693777e+00	1.584438e+02
2.530000e-06	-8.143128e-07	1.996076e-09	-5.778272e+00	1.282367e+02
2.540000e-06	-9.669190e-07	1.517921e-09	-6.861148e+00	9.689744e+01
2.550000e-06	-1.119163e-06	1.021310e-09	-7.941457e+00	6.439985e+01
2.560000e-06	-1.270938e-06	5.099766e-10	-9.018432e+00	3.075578e+01
2.570000e-06	-1.422230e-06	-1.653690e-11	-1.009199e+01	-3.977367e+00
2.580000e-06	-1.573009e-06	-5.606408e-10	-1.116189e+01	-3.969242e+01
2.590000e-06	-1.723212e-06	-1.120210e-09	-1.222772e+01	-7.623208e+01
2.600000e-06	-1.872808e-06	-1.691930e-09	-1.328923e+01	-1.133928e+02
2.610000e-06	-2.021730e-06	-2.270649e-09	-1.434597e+01	-1.509328e+02
2.620000e-06	-2.169911e-06	-2.849742e-09	-1.539744e+01	-1.885832e+02
2.630000e-06	-2.317221e-06	-3.425553e-09	-1.644274e+01	-2.260625e+02
2.640000e-06	-2.463581e-06	-3.994422e-09	-1.748130e+01	-2.630909e+02
2.650000e-06	-2.609058e-06	-4.552379e-09	-1.851358e+01	-2.994060e+02
2.660000e-06	-2.753554e-06	-5.096445e-09	-1.953891e+01	-3.347758e+02
2.670000e-06	-2.896956e-06	-5.618657e-09	-2.055647e+01	-3.690095e+02
2.680000e-06	-3.039245e-06	-6.116661e-09	-2.156614e+01	-4.019645e+02
2.690000e-06	-3.180359e-06	-6.594561e-09	-2.256747e+01	-4.335489e+02
2.700000e-06	-3.320228e-06	-7.054291e-09	-2.355996e+01	-4.637206e+02
2.710000e-06	-3.458808e-06	-7.493033e-09	-2.454331e+01	-4.924819e+02
2.720000e-06	-3.596094e-06	-7.910627e-09	-2.551748e+01	-5.198717e+02
2.730000e-06	-3.732008e-06	-8.312353e-09	-2.648191e+01	-5.459549e+02
2.740000e-06	-3.866525e-06	-8.701243e-09	-2.743642e+01	-5.708127e+02
2.750000e-06	-3.999720e-06	-9.073475e-09	-2.838156e+01	-5.945316e+02
2.760000e-06	-4.131564e-06	-9.424643e-09	-2.931712e+01	-6.171952e+02
2.770000e-06	-4.261994e-06	-9.755259e-09	-3.024263e+01	-6.388775e+02
2.780000e-06	-4.390936e-06	-1.006857e-08	-3.115758e+01	-6.596395e+02
2.790000e-06	-4.518314e-06	-1.036920e-08	-3.206145e+01	-6.795282e+02
2.800000e-06	-4.644171e-06	-1.065937e-08	-3.295452e+01	-6.985777e+02
2.810000e-06	-4.768453e-06	-1.093845e-08	-3.383641e+01	-7.168125e+02
2.820000e-06	-4.891027e-06	-1.120445e-08	-3.470618e+01	-7.342518e+02
2.830000e-06	-5.011804e-06	-1.145917e-08	-3.556319e+01	-7.509137e+02
2.840000e-06	-5.130683e-06	-1.170493e-08	-3.640675e+01	-7.668191e+02
2.850000e-06	-5.247523e-06	-1.194081e-08	-3.723583e+01	-7.819941e+02
2.860000e-06	-5.362154e-06	-1.216629e-08	-3.804924e+01	-7.964715e+02
2.870000e-06	-5.474630e-06	-1.238035e-08	-3.884736e+01	-8.102896e+02
2.880000e-06	-5.585085e-06	-1.258212e-08	-3.963113e+01	-8.234911e+02
2.890000e-06	-5.693517e-06	-1.277599e-08	-4.040056e+01	-8.361194e+02
2.900000e-06	-5.799991e-06	-1.296237e-08	-4.115609e+01	-8.482158e+02
2.910000e-06	-5.904409e-06	-1.314127e-08	-4.189702e+01	-8.598159e+02
2.920000e-06	-6.006601e-06	-1.331183e-08	-4.262217e+01	-8.709473e+02
2.930000e-06	-6.106533e-06	-1.347318e-08	-4.333127e+01	-8.816283e+02
2.940000e-06	-6.204327e-06	-1.362875e-08	-4.402521e+01	-8.918679e+02
