# Temperatura_=_52.51
# Concentracion g/m^3_=_15000.0
# C_Vs_to_Am_M_A/Vsm_=_65563218390.804596
# pendiente_HvsI_1/m_=_3716.3
# ordenada_HvsI_A/m_=_1297.0
# frecuencia_Hz_=_302445.75651402294

Tiempo_(s)	Campo_(V.s)	Magnetizacion_(V.s)	Campo_(kA/m)	Magnetizacion_(A/m)
0.000000e+00	-8.021410e-06	-1.711700e-08	-5.689739e+01	-1.119783e+03
1.000000e-08	-8.018216e-06	-1.711425e-08	-5.687473e+01	-1.119351e+03
2.000000e-08	-8.012354e-06	-1.710547e-08	-5.683316e+01	-1.118713e+03
3.000000e-08	-8.003891e-06	-1.709306e-08	-5.677312e+01	-1.117878e+03
4.000000e-08	-7.992648e-06	-1.707806e-08	-5.669337e+01	-1.116856e+03
5.000000e-08	-7.978401e-06	-1.705937e-08	-5.659231e+01	-1.115662e+03
6.000000e-08	-7.961263e-06	-1.703518e-08	-5.647075e+01	-1.114312e+03
7.000000e-08	-7.941757e-06	-1.700864e-08	-5.633239e+01	-1.112820e+03
8.000000e-08	-7.919905e-06	-1.700274e-08	-5.617739e+01	-1.111202e+03
9.000000e-08	-7.895071e-06	-1.701873e-08	-5.600124e+01	-1.109468e+03
1.000000e-07	-7.867018e-06	-1.697115e-08	-5.580225e+01	-1.107626e+03
1.100000e-07	-7.836000e-06	-1.689944e-08	-5.558224e+01	-1.105679e+03
1.200000e-07	-7.802116e-06	-1.686097e-08	-5.534189e+01	-1.103626e+03
1.300000e-07	-7.765556e-06	-1.682621e-08	-5.508257e+01	-1.101461e+03
1.400000e-07	-7.726767e-06	-1.676739e-08	-5.480743e+01	-1.099178e+03
1.500000e-07	-7.685799e-06	-1.673204e-08	-5.451683e+01	-1.096762e+03
1.600000e-07	-7.642347e-06	-1.673755e-08	-5.420862e+01	-1.094202e+03
1.700000e-07	-7.596156e-06	-1.664001e-08	-5.388098e+01	-1.091481e+03
1.800000e-07	-7.547140e-06	-1.658372e-08	-5.353330e+01	-1.088583e+03
1.900000e-07	-7.495108e-06	-1.655898e-08	-5.316423e+01	-1.085492e+03
2.000000e-07	-7.440198e-06	-1.647893e-08	-5.277474e+01	-1.082190e+03
2.100000e-07	-7.382598e-06	-1.643479e-08	-5.236618e+01	-1.078663e+03
2.200000e-07	-7.322277e-06	-1.638349e-08	-5.193831e+01	-1.074897e+03
2.300000e-07	-7.259368e-06	-1.633786e-08	-5.149208e+01	-1.070881e+03
2.400000e-07	-7.193690e-06	-1.624424e-08	-5.102621e+01	-1.066605e+03
2.500000e-07	-7.125201e-06	-1.615653e-08	-5.054041e+01	-1.062065e+03
2.600000e-07	-7.054060e-06	-1.611867e-08	-5.003579e+01	-1.057260e+03
2.700000e-07	-6.980109e-06	-1.602855e-08	-4.951124e+01	-1.052192e+03
2.800000e-07	-6.903356e-06	-1.592818e-08	-4.896682e+01	-1.046867e+03
2.900000e-07	-6.823812e-06	-1.584840e-08	-4.840260e+01	-1.041294e+03
3.000000e-07	-6.741665e-06	-1.576976e-08	-4.781991e+01	-1.035484e+03
3.100000e-07	-6.657257e-06	-1.566465e-08	-4.722119e+01	-1.029449e+03
3.200000e-07	-6.570557e-06	-1.557063e-08	-4.660621e+01	-1.023197e+03
3.300000e-07	-6.481452e-06	-1.549964e-08	-4.597417e+01	-1.016737e+03
3.400000e-07	-6.389998e-06	-1.539280e-08	-4.532547e+01	-1.010072e+03
3.500000e-07	-6.296303e-06	-1.528272e-08	-4.466088e+01	-1.003204e+03
3.600000e-07	-6.200331e-06	-1.517364e-08	-4.398012e+01	-9.961256e+02
3.700000e-07	-6.102012e-06	-1.506785e-08	-4.328273e+01	-9.888290e+02
3.800000e-07	-6.001424e-06	-1.494209e-08	-4.256924e+01	-9.813015e+02
3.900000e-07	-5.898744e-06	-1.481054e-08	-4.184091e+01	-9.735290e+02
4.000000e-07	-5.793988e-06	-1.469925e-08	-4.109786e+01	-9.654971e+02
4.100000e-07	-5.687141e-06	-1.457639e-08	-4.033997e+01	-9.571931e+02
4.200000e-07	-5.578305e-06	-1.444093e-08	-3.956798e+01	-9.486069e+02
4.300000e-07	-5.467629e-06	-1.430415e-08	-3.878293e+01	-9.397325e+02
4.400000e-07	-5.354972e-06	-1.417372e-08	-3.798383e+01	-9.305679e+02
4.500000e-07	-5.240110e-06	-1.402195e-08	-3.716910e+01	-9.211146e+02
4.600000e-07	-5.123118e-06	-1.386689e-08	-3.633925e+01	-9.113765e+02
4.700000e-07	-5.004305e-06	-1.372492e-08	-3.549648e+01	-9.013583e+02
4.800000e-07	-4.883784e-06	-1.357257e-08	-3.464161e+01	-8.910636e+02
4.900000e-07	-4.761436e-06	-1.340650e-08	-3.377377e+01	-8.804928e+02
5.000000e-07	-4.637308e-06	-1.323910e-08	-3.289331e+01	-8.696418e+02
5.100000e-07	-4.511582e-06	-1.306840e-08	-3.200151e+01	-8.585012e+02
5.200000e-07	-4.384307e-06	-1.288620e-08	-3.109872e+01	-8.470559e+02
5.300000e-07	-4.255403e-06	-1.270364e-08	-3.018438e+01	-8.352864e+02
5.400000e-07	-4.124891e-06	-1.252013e-08	-2.925864e+01	-8.231703e+02
5.500000e-07	-3.992748e-06	-1.232936e-08	-2.832132e+01	-8.106842e+02
5.600000e-07	-3.859090e-06	-1.212820e-08	-2.737326e+01	-7.978065e+02
5.700000e-07	-3.724048e-06	-1.192629e-08	-2.641538e+01	-7.845192e+02
5.800000e-07	-3.587541e-06	-1.172062e-08	-2.544711e+01	-7.708099e+02
5.900000e-07	-3.449596e-06	-1.150216e-08	-2.446864e+01	-7.566723e+02
6.000000e-07	-3.310254e-06	-1.128114e-08	-2.348026e+01	-7.421063e+02
6.100000e-07	-3.169504e-06	-1.105885e-08	-2.248190e+01	-7.271160e+02
6.200000e-07	-3.027345e-06	-1.082463e-08	-2.147353e+01	-7.117080e+02
6.300000e-07	-2.883910e-06	-1.057913e-08	-2.045612e+01	-6.958881e+02
6.400000e-07	-2.739411e-06	-1.033012e-08	-1.943117e+01	-6.796585e+02
6.500000e-07	-2.593928e-06	-1.007528e-08	-1.839923e+01	-6.630149e+02
6.600000e-07	-2.447577e-06	-9.811610e-09	-1.736113e+01	-6.459444e+02
6.700000e-07	-2.300471e-06	-9.544128e-09	-1.631768e+01	-6.284254e+02
6.800000e-07	-2.152660e-06	-9.271384e-09	-1.526923e+01	-6.104272e+02
6.900000e-07	-2.004154e-06	-8.985744e-09	-1.421585e+01	-5.919129e+02
7.000000e-07	-1.855000e-06	-8.688436e-09	-1.315787e+01	-5.728420e+02
7.100000e-07	-1.705319e-06	-8.385897e-09	-1.209615e+01	-5.531738e+02
7.200000e-07	-1.555180e-06	-8.076330e-09	-1.103119e+01	-5.328716e+02
7.300000e-07	-1.404566e-06	-7.756168e-09	-9.962852e+00	-5.119056e+02
7.400000e-07	-1.253391e-06	-7.424830e-09	-8.890544e+00	-4.902544e+02
7.500000e-07	-1.101635e-06	-7.085488e-09	-7.814104e+00	-4.679057e+02
7.600000e-07	-9.493481e-07	-6.738733e-09	-6.733907e+00	-4.448539e+02
7.700000e-07	-7.967151e-07	-6.379986e-09	-5.651252e+00	-4.210965e+02
7.800000e-07	-6.438787e-07	-6.008416e-09	-4.567154e+00	-3.966296e+02
7.900000e-07	-4.908434e-07	-5.623831e-09	-3.481645e+00	-3.714413e+02
8.000000e-07	-3.376399e-07	-5.226112e-09	-2.394944e+00	-3.455062e+02
8.100000e-07	-1.843146e-07	-4.815485e-09	-1.307378e+00	-3.187811e+02
8.200000e-07	-3.088761e-08	-4.392149e-09	-2.190917e-01	-2.912025e+02
8.300000e-07	1.226337e-07	-3.955558e-09	8.698643e-01	-2.626869e+02
8.400000e-07	2.761458e-07	-3.503981e-09	1.958755e+00	-2.331348e+02
8.500000e-07	4.295533e-07	-3.035801e-09	3.046903e+00	-2.024383e+02
8.600000e-07	5.828451e-07	-2.548740e-09	4.134231e+00	-1.704912e+02
8.700000e-07	7.359661e-07	-2.041823e-09	5.220348e+00	-1.372020e+02
8.800000e-07	8.888320e-07	-1.515737e-09	6.304655e+00	-1.025073e+02
8.900000e-07	1.041448e-06	-9.696111e-10	7.387192e+00	-6.638499e+01
9.000000e-07	1.193709e-06	-4.032052e-10	8.467207e+00	-2.886610e+01
9.100000e-07	1.345441e-06	1.818361e-10	9.543470e+00	9.957835e+00
9.200000e-07	1.496646e-06	7.870751e-10	1.061600e+01	4.993114e+01
9.300000e-07	1.647263e-06	1.410757e-09	1.168435e+01	9.083582e+01
9.400000e-07	1.797240e-06	2.046054e-09	1.274817e+01	1.323988e+02
9.500000e-07	1.946616e-06	2.687204e-09	1.380772e+01	1.743041e+02
9.600000e-07	2.095346e-06	3.327982e-09	1.486269e+01	2.162088e+02
9.700000e-07	2.243300e-06	3.964854e-09	1.591216e+01	2.577619e+02
9.800000e-07	2.390396e-06	4.590637e-09	1.695553e+01	2.986241e+02
9.900000e-07	2.536597e-06	5.196228e-09	1.799257e+01	3.384855e+02
1.000000e-06	2.681919e-06	5.778329e-09	1.902336e+01	3.770826e+02
1.010000e-06	2.826333e-06	6.337190e-09	2.004772e+01	4.142091e+02
1.020000e-06	2.969618e-06	6.872603e-09	2.106407e+01	4.497233e+02
1.030000e-06	3.111655e-06	7.381414e-09	2.207156e+01	4.835488e+02
1.040000e-06	3.252447e-06	7.865368e-09	2.307023e+01	5.156709e+02
1.050000e-06	3.391901e-06	8.324919e-09	2.405940e+01	5.461279e+02
1.060000e-06	3.530009e-06	8.761585e-09	2.503903e+01	5.749991e+02
1.070000e-06	3.666814e-06	9.180527e-09	2.600941e+01	6.023915e+02
1.080000e-06	3.802182e-06	9.581910e-09	2.696960e+01	6.284253e+02
1.090000e-06	3.936113e-06	9.963034e-09	2.791960e+01	6.532212e+02
1.100000e-06	4.068688e-06	1.032472e-08	2.885998e+01	6.768903e+02
1.110000e-06	4.199819e-06	1.066966e-08	2.979012e+01	6.995265e+02
1.120000e-06	4.329496e-06	1.099898e-08	3.070994e+01	7.212032e+02
1.130000e-06	4.457706e-06	1.131346e-08	3.161936e+01	7.419734e+02
1.140000e-06	4.584363e-06	1.161390e-08	3.251776e+01	7.618721e+02
1.150000e-06	4.709434e-06	1.190147e-08	3.340491e+01	7.809219e+02
1.160000e-06	4.832874e-06	1.217538e-08	3.428050e+01	7.991386e+02
1.170000e-06	4.954671e-06	1.243594e-08	3.514442e+01	8.165375e+02
1.180000e-06	5.074723e-06	1.268514e-08	3.599597e+01	8.331381e+02
1.190000e-06	5.192891e-06	1.292527e-08	3.683416e+01	8.489679e+02
1.200000e-06	5.309122e-06	1.315581e-08	3.765862e+01	8.640633e+02
1.210000e-06	5.423295e-06	1.337715e-08	3.846846e+01	8.784689e+02
1.220000e-06	5.535317e-06	1.358750e-08	3.926306e+01	8.922349e+02
1.230000e-06	5.645299e-06	1.378658e-08	4.004318e+01	9.054134e+02
1.240000e-06	5.753311e-06	1.397755e-08	4.080933e+01	9.180536e+02
1.250000e-06	5.859293e-06	1.416204e-08	4.156108e+01	9.301982e+02
1.260000e-06	5.963119e-06	1.434009e-08	4.229754e+01	9.418798e+02
1.270000e-06	6.064697e-06	1.450782e-08	4.301805e+01	9.531198e+02
1.280000e-06	6.164052e-06	1.466816e-08	4.372279e+01	9.639274e+02
1.290000e-06	6.261076e-06	1.482535e-08	4.441100e+01	9.743023e+02
1.300000e-06	6.355761e-06	1.497777e-08	4.508262e+01	9.842370e+02
1.310000e-06	6.448206e-06	1.512405e-08	4.573835e+01	9.937209e+02
1.320000e-06	6.538396e-06	1.526283e-08	4.637809e+01	1.002744e+03
1.330000e-06	6.626237e-06	1.539575e-08	4.700116e+01	1.011303e+03
1.340000e-06	6.711720e-06	1.552106e-08	4.760750e+01	1.019400e+03
1.350000e-06	6.794894e-06	1.563738e-08	4.819748e+01	1.027047e+03
1.360000e-06	6.875654e-06	1.574767e-08	4.877032e+01	1.034266e+03
1.370000e-06	6.953905e-06	1.585293e-08	4.932537e+01	1.041087e+03
1.380000e-06	7.029589e-06	1.595267e-08	4.986221e+01	1.047543e+03
1.390000e-06	7.102586e-06	1.604684e-08	5.038000e+01	1.053670e+03
1.400000e-06	7.172979e-06	1.613655e-08	5.087931e+01	1.059503e+03
1.410000e-06	7.240815e-06	1.622129e-08	5.136048e+01	1.065069e+03
1.420000e-06	7.305992e-06	1.630050e-08	5.182279e+01	1.070388e+03
1.430000e-06	7.368620e-06	1.637514e-08	5.226702e+01	1.075471e+03
1.440000e-06	7.428816e-06	1.644733e-08	5.269401e+01	1.080319e+03
1.450000e-06	7.486417e-06	1.651730e-08	5.310258e+01	1.084924e+03
1.460000e-06	7.541296e-06	1.658406e-08	5.349185e+01	1.089273e+03
1.470000e-06	7.593298e-06	1.664639e-08	5.386071e+01	1.093350e+03
1.480000e-06	7.642253e-06	1.670258e-08	5.420796e+01	1.097138e+03
1.490000e-06	7.688314e-06	1.675412e-08	5.453467e+01	1.100626e+03
1.500000e-06	7.731640e-06	1.680152e-08	5.484200e+01	1.103805e+03
1.510000e-06	7.772191e-06	1.684372e-08	5.512963e+01	1.106676e+03
1.520000e-06	7.809979e-06	1.688240e-08	5.539767e+01	1.109247e+03
1.530000e-06	7.845030e-06	1.691772e-08	5.564629e+01	1.111532e+03
1.540000e-06	7.877219e-06	1.694923e-08	5.587461e+01	1.113550e+03
1.550000e-06	7.906658e-06	1.697718e-08	5.608343e+01	1.115323e+03
1.560000e-06	7.933398e-06	1.700108e-08	5.627310e+01	1.116872e+03
1.570000e-06	7.957139e-06	1.702226e-08	5.644150e+01	1.118217e+03
1.580000e-06	7.978001e-06	1.703999e-08	5.658948e+01	1.119373e+03
1.590000e-06	7.996107e-06	1.705301e-08	5.671791e+01	1.120349e+03
1.600000e-06	8.011217e-06	1.706360e-08	5.682509e+01	1.121149e+03
1.610000e-06	8.023233e-06	1.707189e-08	5.691032e+01	1.121770e+03
1.620000e-06	8.032162e-06	1.707787e-08	5.697365e+01	1.122208e+03
1.630000e-06	8.038175e-06	1.708203e-08	5.701631e+01	1.122455e+03
1.640000e-06	8.041398e-06	1.708433e-08	5.703916e+01	1.122502e+03
1.650000e-06	8.041727e-06	1.708389e-08	5.704150e+01	1.122344e+03
1.660000e-06	8.039296e-06	1.707551e-08	5.702426e+01	1.121978e+03
1.670000e-06	8.034211e-06	1.706667e-08	5.698819e+01	1.121405e+03
1.680000e-06	8.026419e-06	1.705666e-08	5.693292e+01	1.120631e+03
1.690000e-06	8.015990e-06	1.704246e-08	5.685895e+01	1.119668e+03
1.700000e-06	8.002730e-06	1.702614e-08	5.676488e+01	1.118527e+03
1.710000e-06	7.986676e-06	1.701107e-08	5.665101e+01	1.117224e+03
1.720000e-06	7.968273e-06	1.699492e-08	5.652048e+01	1.115776e+03
1.730000e-06	7.947603e-06	1.693622e-08	5.637386e+01	1.114197e+03
1.740000e-06	7.924064e-06	1.687300e-08	5.620689e+01	1.112499e+03
1.750000e-06	7.896990e-06	1.688549e-08	5.601485e+01	1.110690e+03
1.760000e-06	7.866334e-06	1.687983e-08	5.579740e+01	1.108776e+03
1.770000e-06	7.832711e-06	1.683727e-08	5.555891e+01	1.106757e+03
1.780000e-06	7.796796e-06	1.682345e-08	5.530416e+01	1.104628e+03
1.790000e-06	7.758567e-06	1.680062e-08	5.503299e+01	1.102384e+03
1.800000e-06	7.718186e-06	1.670610e-08	5.474656e+01	1.100011e+03
1.810000e-06	7.675577e-06	1.670091e-08	5.444433e+01	1.097499e+03
1.820000e-06	7.630280e-06	1.668546e-08	5.412303e+01	1.094830e+03
1.830000e-06	7.582330e-06	1.663158e-08	5.378291e+01	1.091991e+03
1.840000e-06	7.531452e-06	1.664741e-08	5.342202e+01	1.088963e+03
1.850000e-06	7.477476e-06	1.655083e-08	5.303916e+01	1.085730e+03
1.860000e-06	7.420678e-06	1.651652e-08	5.263628e+01	1.082276e+03
1.870000e-06	7.361305e-06	1.644051e-08	5.221514e+01	1.078588e+03
1.880000e-06	7.299308e-06	1.636199e-08	5.177538e+01	1.074653e+03
1.890000e-06	7.234395e-06	1.637994e-08	5.131494e+01	1.070461e+03
1.900000e-06	7.166744e-06	1.625707e-08	5.083508e+01	1.066005e+03
1.910000e-06	7.096357e-06	1.619583e-08	5.033581e+01	1.061285e+03
1.920000e-06	7.023148e-06	1.612586e-08	4.981653e+01	1.056300e+03
1.930000e-06	6.947229e-06	1.603720e-08	4.927801e+01	1.051056e+03
1.940000e-06	6.868482e-06	1.596821e-08	4.871945e+01	1.045562e+03
1.950000e-06	6.787138e-06	1.586770e-08	4.814246e+01	1.039826e+03
1.960000e-06	6.703400e-06	1.581738e-08	4.754849e+01	1.033861e+03
1.970000e-06	6.617178e-06	1.568166e-08	4.693690e+01	1.027677e+03
1.980000e-06	6.528460e-06	1.558410e-08	4.630761e+01	1.021283e+03
1.990000e-06	6.437490e-06	1.549307e-08	4.566234e+01	1.014684e+03
2.000000e-06	6.344337e-06	1.538812e-08	4.500159e+01	1.007880e+03
2.010000e-06	6.248789e-06	1.527911e-08	4.432385e+01	1.000870e+03
2.020000e-06	6.150988e-06	1.516515e-08	4.363013e+01	9.936441e+02
2.030000e-06	6.051104e-06	1.507462e-08	4.292163e+01	9.861917e+02
2.040000e-06	5.949034e-06	1.494044e-08	4.219763e+01	9.784990e+02
2.050000e-06	5.844714e-06	1.481519e-08	4.145767e+01	9.705514e+02
2.060000e-06	5.738448e-06	1.467982e-08	4.070391e+01	9.623355e+02
2.070000e-06	5.630348e-06	1.455915e-08	3.993713e+01	9.538403e+02
2.080000e-06	5.520219e-06	1.441489e-08	3.915596e+01	9.450584e+02
2.090000e-06	5.408031e-06	1.428742e-08	3.836019e+01	9.359865e+02
2.100000e-06	5.293867e-06	1.415978e-08	3.755041e+01	9.266250e+02
2.110000e-06	5.177702e-06	1.400330e-08	3.672642e+01	9.169774e+02
2.120000e-06	5.059389e-06	1.385191e-08	3.588721e+01	9.070482e+02
2.130000e-06	4.939084e-06	1.370009e-08	3.503386e+01	8.968416e+02
2.140000e-06	4.817064e-06	1.354672e-08	3.416835e+01	8.863592e+02
2.150000e-06	4.693397e-06	1.337795e-08	3.329116e+01	8.755985e+02
2.160000e-06	4.567991e-06	1.321249e-08	3.240163e+01	8.645518e+02
2.170000e-06	4.440848e-06	1.303698e-08	3.149978e+01	8.532058e+02
2.180000e-06	4.312056e-06	1.285750e-08	3.058623e+01	8.415423e+02
2.190000e-06	4.181813e-06	1.266873e-08	2.966240e+01	8.295396e+02
2.200000e-06	4.050116e-06	1.248737e-08	2.872824e+01	8.171743e+02
2.210000e-06	3.916807e-06	1.229435e-08	2.778266e+01	8.044241e+02
2.220000e-06	3.781945e-06	1.209465e-08	2.682605e+01	7.912695e+02
2.230000e-06	3.645613e-06	1.189430e-08	2.585903e+01	7.776962e+02
2.240000e-06	3.507983e-06	1.168247e-08	2.488279e+01	7.636961e+02
2.250000e-06	3.369054e-06	1.145815e-08	2.389734e+01	7.492669e+02
2.260000e-06	3.228695e-06	1.122785e-08	2.290175e+01	7.344118e+02
2.270000e-06	3.086996e-06	1.099782e-08	2.189665e+01	7.191368e+02
2.280000e-06	2.944097e-06	1.075874e-08	2.088304e+01	7.034482e+02
2.290000e-06	2.800088e-06	1.051475e-08	1.986156e+01	6.873499e+02
2.300000e-06	2.655066e-06	1.026505e-08	1.883289e+01	6.708397e+02
2.310000e-06	2.509190e-06	1.001017e-08	1.779816e+01	6.539078e+02
2.320000e-06	2.362571e-06	9.744007e-09	1.675816e+01	6.365353e+02
2.330000e-06	2.215168e-06	9.471773e-09	1.571261e+01	6.186944e+02
2.340000e-06	2.066896e-06	9.192361e-09	1.466088e+01	6.003498e+02
2.350000e-06	1.917882e-06	8.900783e-09	1.360390e+01	5.814617e+02
2.360000e-06	1.768332e-06	8.601071e-09	1.254311e+01	5.619891e+02
2.370000e-06	1.618264e-06	8.296208e-09	1.147865e+01	5.418938e+02
2.380000e-06	1.467685e-06	7.983069e-09	1.041057e+01	5.211434e+02
2.390000e-06	1.316615e-06	7.658508e-09	9.339004e+00	4.997136e+02
2.400000e-06	1.165077e-06	7.321262e-09	8.264115e+00	4.775895e+02
2.410000e-06	1.013129e-06	6.973984e-09	7.186318e+00	4.547634e+02
2.420000e-06	8.607931e-07	6.617139e-09	6.105769e+00	4.312325e+02
2.430000e-06	7.081317e-07	6.250170e-09	5.022913e+00	4.069939e+02
2.440000e-06	5.552081e-07	5.872644e-09	3.938197e+00	3.820389e+02
2.450000e-06	4.020941e-07	5.478626e-09	2.852130e+00	3.563470e+02
2.460000e-06	2.488200e-07	5.069220e-09	1.764928e+00	3.298813e+02
2.470000e-06	9.541632e-08	4.648873e-09	6.768061e-01	3.025846e+02
2.480000e-06	-5.803614e-08	4.217764e-09	-4.116614e-01	2.743798e+02
2.490000e-06	-2.114603e-07	3.772562e-09	-1.499928e+00	2.451718e+02
2.500000e-06	-3.647952e-07	3.309675e-09	-2.587562e+00	2.148545e+02
2.510000e-06	-5.180753e-07	2.828386e-09	-3.674807e+00	1.833198e+02
2.520000e-06	-6.712660e-07	2.326442e-09	-4.761418e+00	1.504700e+02
2.530000e-06	-8.242085e-07	1.803578e-09	-5.846268e+00	1.162311e+02
2.540000e-06	-9.767796e-07	1.262327e-09	-6.928484e+00	8.056648e+01
2.550000e-06	-1.129001e-06	6.997326e-10	-8.008222e+00	4.348899e+01
2.560000e-06	-1.280817e-06	1.139777e-10	-9.085081e+00	5.070082e+00
2.570000e-06	-1.432117e-06	-4.928598e-10	-1.015828e+01	-3.455522e+01
2.580000e-06	-1.582833e-06	-1.115157e-09	-1.122733e+01	-7.518843e+01
2.590000e-06	-1.733012e-06	-1.748029e-09	-1.229258e+01	-1.165731e+02
2.600000e-06	-1.882613e-06	-2.388892e-09	-1.335373e+01	-1.584054e+02
2.610000e-06	-2.031515e-06	-3.032814e-09	-1.440992e+01	-2.003491e+02
2.620000e-06	-2.179686e-06	-3.674307e-09	-1.546093e+01	-2.420538e+02
2.630000e-06	-2.326976e-06	-4.305922e-09	-1.650568e+01	-2.831741e+02
2.640000e-06	-2.473345e-06	-4.922997e-09	-1.754390e+01	-3.233890e+02
2.650000e-06	-2.618865e-06	-5.521109e-09	-1.857611e+01	-3.624185e+02
2.660000e-06	-2.763408e-06	-6.097019e-09	-1.960138e+01	-4.000369e+02
2.670000e-06	-2.906877e-06	-6.647573e-09	-2.061903e+01	-4.360813e+02
2.680000e-06	-3.049223e-06	-7.169659e-09	-2.162872e+01	-4.704546e+02
2.690000e-06	-3.190311e-06	-7.665289e-09	-2.262948e+01	-5.031230e+02
2.700000e-06	-3.330154e-06	-8.136244e-09	-2.362142e+01	-5.341088e+02
2.710000e-06	-3.468683e-06	-8.584525e-09	-2.460403e+01	-5.634797e+02
2.720000e-06	-3.605853e-06	-9.013171e-09	-2.557700e+01	-5.913353e+02
2.730000e-06	-3.741696e-06	-9.424182e-09	-2.654056e+01	-6.177929e+02
2.740000e-06	-3.876206e-06	-9.818820e-09	-2.749467e+01	-6.429745e+02
2.750000e-06	-4.009406e-06	-1.019309e-08	-2.843948e+01	-6.669952e+02
2.760000e-06	-4.141207e-06	-1.054526e-08	-2.937437e+01	-6.899549e+02
2.770000e-06	-4.271537e-06	-1.087931e-08	-3.029883e+01	-7.119339e+02
2.780000e-06	-4.400373e-06	-1.119891e-08	-3.121268e+01	-7.329914e+02
2.790000e-06	-4.527685e-06	-1.150516e-08	-3.211573e+01	-7.531679e+02
2.800000e-06	-4.653473e-06	-1.179786e-08	-3.300797e+01	-7.724892e+02
2.810000e-06	-4.777628e-06	-1.207965e-08	-3.388862e+01	-7.909727e+02
2.820000e-06	-4.900059e-06	-1.234939e-08	-3.475705e+01	-8.086331e+02
2.830000e-06	-5.020766e-06	-1.260614e-08	-3.561325e+01	-8.254883e+02
2.840000e-06	-5.139580e-06	-1.285306e-08	-3.645602e+01	-8.415629e+02
2.850000e-06	-5.256330e-06	-1.309028e-08	-3.728415e+01	-8.568904e+02
2.860000e-06	-5.370873e-06	-1.331797e-08	-3.809663e+01	-8.715130e+02
2.870000e-06	-5.483245e-06	-1.353497e-08	-3.889370e+01	-8.854795e+02
2.880000e-06	-5.593537e-06	-1.374104e-08	-3.967602e+01	-8.988418e+02
2.890000e-06	-5.701827e-06	-1.393858e-08	-4.044414e+01	-9.116506e+02
2.900000e-06	-5.808201e-06	-1.412791e-08	-4.119868e+01	-9.239509e+02
2.910000e-06	-5.912489e-06	-1.431145e-08	-4.193841e+01	-9.357791e+02
2.920000e-06	-6.014562e-06	-1.448629e-08	-4.266243e+01	-9.471600e+02
2.930000e-06	-6.114388e-06	-1.465279e-08	-4.337052e+01	-9.581067e+02
2.940000e-06	-6.212008e-06	-1.481291e-08	-4.406295e+01	-9.686219e+02
