# Temperatura_=_58.8
# Concentracion g/m^3_=_15000.0
# C_Vs_to_Am_M_A/Vsm_=_65563218390.804596
# pendiente_HvsI_1/m_=_3716.3
# ordenada_HvsI_A/m_=_1297.0
# frecuencia_Hz_=_302451.6486194241

Tiempo_(s)	Campo_(V.s)	Magnetizacion_(V.s)	Campo_(kA/m)	Magnetizacion_(A/m)
0.000000e+00	-8.000341e-06	-1.742249e-08	-5.689671e+01	-1.139290e+03
1.000000e-08	-7.997296e-06	-1.742109e-08	-5.687506e+01	-1.138857e+03
2.000000e-08	-7.991682e-06	-1.741214e-08	-5.683513e+01	-1.138212e+03
3.000000e-08	-7.983469e-06	-1.739928e-08	-5.677672e+01	-1.137359e+03
4.000000e-08	-7.972393e-06	-1.738361e-08	-5.669795e+01	-1.136308e+03
5.000000e-08	-7.958365e-06	-1.736529e-08	-5.659819e+01	-1.135071e+03
6.000000e-08	-7.941452e-06	-1.734157e-08	-5.647790e+01	-1.133663e+03
7.000000e-08	-7.922127e-06	-1.731313e-08	-5.634047e+01	-1.132101e+03
8.000000e-08	-7.900500e-06	-1.730588e-08	-5.618666e+01	-1.130402e+03
9.000000e-08	-7.875926e-06	-1.731510e-08	-5.601190e+01	-1.128580e+03
1.000000e-07	-7.848043e-06	-1.727019e-08	-5.581360e+01	-1.126647e+03
1.100000e-07	-7.817151e-06	-1.720635e-08	-5.559390e+01	-1.124614e+03
1.200000e-07	-7.783540e-06	-1.716766e-08	-5.535487e+01	-1.122483e+03
1.300000e-07	-7.747318e-06	-1.712938e-08	-5.509727e+01	-1.120255e+03
1.400000e-07	-7.708780e-06	-1.706746e-08	-5.482319e+01	-1.117921e+03
1.500000e-07	-7.668062e-06	-1.703082e-08	-5.453361e+01	-1.115472e+03
1.600000e-07	-7.624909e-06	-1.703316e-08	-5.422672e+01	-1.112890e+03
1.700000e-07	-7.579077e-06	-1.692585e-08	-5.390077e+01	-1.110155e+03
1.800000e-07	-7.530492e-06	-1.688149e-08	-5.355525e+01	-1.107244e+03
1.900000e-07	-7.478875e-06	-1.685507e-08	-5.318816e+01	-1.104133e+03
2.000000e-07	-7.424248e-06	-1.676482e-08	-5.279966e+01	-1.100797e+03
2.100000e-07	-7.366899e-06	-1.672486e-08	-5.239181e+01	-1.097214e+03
2.200000e-07	-7.306902e-06	-1.666391e-08	-5.196512e+01	-1.093365e+03
2.300000e-07	-7.244314e-06	-1.661240e-08	-5.152001e+01	-1.089235e+03
2.400000e-07	-7.178994e-06	-1.651936e-08	-5.105547e+01	-1.084814e+03
2.500000e-07	-7.110919e-06	-1.644066e-08	-5.057134e+01	-1.080100e+03
2.600000e-07	-7.040195e-06	-1.638831e-08	-5.006836e+01	-1.075095e+03
2.700000e-07	-6.966675e-06	-1.628969e-08	-4.954550e+01	-1.069809e+03
2.800000e-07	-6.890346e-06	-1.619013e-08	-4.900267e+01	-1.064255e+03
2.900000e-07	-6.811216e-06	-1.610686e-08	-4.843991e+01	-1.058449e+03
3.000000e-07	-6.729392e-06	-1.602881e-08	-4.785799e+01	-1.052409e+03
3.100000e-07	-6.645238e-06	-1.592288e-08	-4.725951e+01	-1.046150e+03
3.200000e-07	-6.558910e-06	-1.582505e-08	-4.664556e+01	-1.039687e+03
3.300000e-07	-6.470276e-06	-1.574364e-08	-4.601522e+01	-1.033026e+03
3.400000e-07	-6.379199e-06	-1.563508e-08	-4.536750e+01	-1.026172e+03
3.500000e-07	-6.285844e-06	-1.552217e-08	-4.470357e+01	-1.019119e+03
3.600000e-07	-6.190266e-06	-1.541005e-08	-4.402384e+01	-1.011859e+03
3.700000e-07	-6.092370e-06	-1.530038e-08	-4.332763e+01	-1.004376e+03
3.800000e-07	-5.992249e-06	-1.517320e-08	-4.261559e+01	-9.966546e+02
3.900000e-07	-5.890008e-06	-1.504386e-08	-4.188847e+01	-9.886756e+02
4.000000e-07	-5.785687e-06	-1.493067e-08	-4.114657e+01	-9.804223e+02
4.100000e-07	-5.679295e-06	-1.480360e-08	-4.038993e+01	-9.718809e+02
4.200000e-07	-5.570909e-06	-1.465903e-08	-3.961911e+01	-9.630422e+02
4.300000e-07	-5.460620e-06	-1.451421e-08	-3.883476e+01	-9.539022e+02
4.400000e-07	-5.348317e-06	-1.437914e-08	-3.803609e+01	-9.444618e+02
4.500000e-07	-5.233886e-06	-1.423055e-08	-3.722228e+01	-9.347262e+02
4.600000e-07	-5.117425e-06	-1.407469e-08	-3.639403e+01	-9.247024e+02
4.700000e-07	-4.999099e-06	-1.392689e-08	-3.555252e+01	-9.143980e+02
4.800000e-07	-4.878972e-06	-1.376970e-08	-3.469821e+01	-9.038181e+02
4.900000e-07	-4.757075e-06	-1.359706e-08	-3.383130e+01	-8.929637e+02
5.000000e-07	-4.633450e-06	-1.342169e-08	-3.295210e+01	-8.818302e+02
5.100000e-07	-4.508148e-06	-1.324664e-08	-3.206099e+01	-8.704068e+02
5.200000e-07	-4.381208e-06	-1.306404e-08	-3.115821e+01	-8.586768e+02
5.300000e-07	-4.252662e-06	-1.287825e-08	-3.024402e+01	-8.466189e+02
5.400000e-07	-4.122574e-06	-1.269130e-08	-2.931886e+01	-8.342092e+02
5.500000e-07	-3.990891e-06	-1.249870e-08	-2.838236e+01	-8.214238e+02
5.600000e-07	-3.857709e-06	-1.229547e-08	-2.743520e+01	-8.082414e+02
5.700000e-07	-3.723155e-06	-1.208642e-08	-2.647828e+01	-7.946452e+02
5.800000e-07	-3.587099e-06	-1.187523e-08	-2.551068e+01	-7.806249e+02
5.900000e-07	-3.449549e-06	-1.165224e-08	-2.453245e+01	-7.661766e+02
6.000000e-07	-3.310698e-06	-1.142463e-08	-2.354498e+01	-7.513025e+02
6.100000e-07	-3.170506e-06	-1.119369e-08	-2.254796e+01	-7.360088e+02
6.200000e-07	-3.028895e-06	-1.095415e-08	-2.154085e+01	-7.203033e+02
6.300000e-07	-2.885982e-06	-1.070956e-08	-2.052449e+01	-7.041919e+02
6.400000e-07	-2.741995e-06	-1.046048e-08	-1.950048e+01	-6.876758e+02
6.500000e-07	-2.597077e-06	-1.020382e-08	-1.846986e+01	-6.707486e+02
6.600000e-07	-2.451185e-06	-9.934688e-09	-1.743230e+01	-6.533949e+02
6.700000e-07	-2.304437e-06	-9.659979e-09	-1.638866e+01	-6.355898e+02
6.800000e-07	-2.156956e-06	-9.378087e-09	-1.533981e+01	-6.172997e+02
6.900000e-07	-2.008807e-06	-9.086483e-09	-1.428620e+01	-5.984854e+02
7.000000e-07	-1.860048e-06	-8.787154e-09	-1.322827e+01	-5.791047e+02
7.100000e-07	-1.710725e-06	-8.480826e-09	-1.216631e+01	-5.591170e+02
7.200000e-07	-1.560897e-06	-8.167601e-09	-1.110077e+01	-5.384864e+02
7.300000e-07	-1.410556e-06	-7.844208e-09	-1.003157e+01	-5.171850e+02
7.400000e-07	-1.259726e-06	-7.510109e-09	-8.958903e+00	-4.951943e+02
7.500000e-07	-1.108447e-06	-7.165520e-09	-7.883035e+00	-4.725047e+02
7.600000e-07	-9.567895e-07	-6.809487e-09	-6.804482e+00	-4.491131e+02
7.700000e-07	-8.048236e-07	-6.440999e-09	-5.723733e+00	-4.250190e+02
7.800000e-07	-6.525504e-07	-6.062018e-09	-4.640799e+00	-4.002186e+02
7.900000e-07	-4.999651e-07	-5.673220e-09	-3.555645e+00	-3.746991e+02
8.000000e-07	-3.471488e-07	-5.272365e-09	-2.468848e+00	-3.484328e+02
8.100000e-07	-1.941483e-07	-4.856450e-09	-1.380741e+00	-3.213726e+02
8.200000e-07	-4.100912e-08	-4.427043e-09	-2.916481e-01	-2.934502e+02
8.300000e-07	1.121711e-07	-3.985162e-09	7.977371e-01	-2.645770e+02
8.400000e-07	2.653057e-07	-3.529294e-09	1.886797e+00	-2.346487e+02
8.500000e-07	4.183415e-07	-3.056609e-09	2.975155e+00	-2.035531e+02
8.600000e-07	5.712447e-07	-2.562815e-09	4.062570e+00	-1.711811e+02
8.700000e-07	7.239329e-07	-2.048163e-09	5.148455e+00	-1.374399e+02
8.800000e-07	8.763901e-07	-1.513087e-09	6.232698e+00	-1.022664e+02
8.900000e-07	1.028561e-06	-9.574445e-10	7.314902e+00	-6.564059e+01
9.000000e-07	1.180295e-06	-3.817564e-10	8.394006e+00	-2.759675e+01
9.100000e-07	1.331570e-06	2.121659e-10	9.469840e+00	1.176918e+01
9.200000e-07	1.482387e-06	8.253025e-10	1.054242e+01	5.229661e+01
9.300000e-07	1.632670e-06	1.456980e-09	1.161120e+01	9.376258e+01
9.400000e-07	1.782370e-06	2.099181e-09	1.267584e+01	1.358893e+02
9.500000e-07	1.931474e-06	2.746616e-09	1.373623e+01	1.783567e+02
9.600000e-07	2.079945e-06	3.396102e-09	1.479212e+01	2.208184e+02
9.700000e-07	2.227608e-06	4.043874e-09	1.584227e+01	2.629209e+02
9.800000e-07	2.374455e-06	4.680255e-09	1.688662e+01	3.043224e+02
9.900000e-07	2.520487e-06	5.294668e-09	1.792516e+01	3.447115e+02
1.000000e-06	2.665508e-06	5.884236e-09	1.895652e+01	3.838227e+02
1.010000e-06	2.809480e-06	6.449921e-09	1.998042e+01	4.214481e+02
1.020000e-06	2.952358e-06	6.991687e-09	2.099654e+01	4.574438e+02
1.030000e-06	3.094049e-06	7.506465e-09	2.200422e+01	4.917312e+02
1.040000e-06	3.234505e-06	7.997591e-09	2.300310e+01	5.242935e+02
1.050000e-06	3.373663e-06	8.466141e-09	2.399277e+01	5.551669e+02
1.060000e-06	3.511557e-06	8.909766e-09	2.497344e+01	5.844294e+02
1.070000e-06	3.648130e-06	9.332615e-09	2.594472e+01	6.121870e+02
1.080000e-06	3.783286e-06	9.738586e-09	2.690592e+01	6.385607e+02
1.090000e-06	3.917067e-06	1.012615e-08	2.785734e+01	6.636729e+02
1.100000e-06	4.049471e-06	1.049320e-08	2.879897e+01	6.876377e+02
1.110000e-06	4.180404e-06	1.084084e-08	2.973014e+01	7.105531e+02
1.120000e-06	4.309842e-06	1.117161e-08	3.065067e+01	7.324974e+02
1.130000e-06	4.437772e-06	1.148983e-08	3.156049e+01	7.535286e+02
1.140000e-06	4.564174e-06	1.179469e-08	3.245943e+01	7.736864e+02
1.150000e-06	4.689070e-06	1.208673e-08	3.334766e+01	7.929972e+02
1.160000e-06	4.812336e-06	1.236565e-08	3.422430e+01	8.114794e+02
1.170000e-06	4.933882e-06	1.263035e-08	3.508871e+01	8.291492e+02
1.180000e-06	5.053666e-06	1.288305e-08	3.594059e+01	8.460256e+02
1.190000e-06	5.171610e-06	1.312550e-08	3.677939e+01	8.621338e+02
1.200000e-06	5.287603e-06	1.335879e-08	3.760430e+01	8.775069e+02
1.210000e-06	5.401528e-06	1.358400e-08	3.841451e+01	8.921857e+02
1.220000e-06	5.513371e-06	1.379867e-08	3.920991e+01	9.062165e+02
1.230000e-06	5.623194e-06	1.400206e-08	3.999095e+01	9.196481e+02
1.240000e-06	5.731046e-06	1.419647e-08	4.075797e+01	9.325279e+02
1.250000e-06	5.836869e-06	1.438382e-08	4.151056e+01	9.448980e+02
1.260000e-06	5.940543e-06	1.456453e-08	4.224787e+01	9.567923e+02
1.270000e-06	6.042028e-06	1.473619e-08	4.296961e+01	9.682345e+02
1.280000e-06	6.141258e-06	1.490187e-08	4.367531e+01	9.792379e+02
1.290000e-06	6.238149e-06	1.506286e-08	4.436438e+01	9.898063e+02
1.300000e-06	6.332789e-06	1.521672e-08	4.503744e+01	9.999364e+02
1.310000e-06	6.425201e-06	1.536236e-08	4.569466e+01	1.009621e+03
1.320000e-06	6.515295e-06	1.550020e-08	4.633539e+01	1.018852e+03
1.330000e-06	6.603010e-06	1.563297e-08	4.695919e+01	1.027626e+03
1.340000e-06	6.688454e-06	1.576213e-08	4.756685e+01	1.035945e+03
1.350000e-06	6.771676e-06	1.588554e-08	4.815871e+01	1.043816e+03
1.360000e-06	6.852448e-06	1.600089e-08	4.873314e+01	1.051257e+03
1.370000e-06	6.930636e-06	1.610950e-08	4.928920e+01	1.058293e+03
1.380000e-06	7.006187e-06	1.621089e-08	4.982650e+01	1.064951e+03
1.390000e-06	7.079058e-06	1.630545e-08	5.034474e+01	1.071263e+03
1.400000e-06	7.149416e-06	1.639596e-08	5.084511e+01	1.077260e+03
1.410000e-06	7.217276e-06	1.648205e-08	5.132772e+01	1.082967e+03
1.420000e-06	7.282501e-06	1.656296e-08	5.179159e+01	1.088407e+03
1.430000e-06	7.345207e-06	1.664001e-08	5.223754e+01	1.093592e+03
1.440000e-06	7.405415e-06	1.671507e-08	5.266573e+01	1.098526e+03
1.450000e-06	7.463001e-06	1.678807e-08	5.307526e+01	1.103208e+03
1.460000e-06	7.517906e-06	1.685701e-08	5.346574e+01	1.107630e+03
1.470000e-06	7.569934e-06	1.692040e-08	5.383575e+01	1.111780e+03
1.480000e-06	7.618894e-06	1.697714e-08	5.418394e+01	1.115647e+03
1.490000e-06	7.664972e-06	1.702856e-08	5.451164e+01	1.119220e+03
1.500000e-06	7.708371e-06	1.707724e-08	5.482028e+01	1.122493e+03
1.510000e-06	7.748994e-06	1.712179e-08	5.510918e+01	1.125466e+03
1.520000e-06	7.786878e-06	1.716164e-08	5.537861e+01	1.128142e+03
1.530000e-06	7.822062e-06	1.719752e-08	5.562883e+01	1.130533e+03
1.540000e-06	7.854405e-06	1.723041e-08	5.585885e+01	1.132654e+03
1.550000e-06	7.883982e-06	1.726024e-08	5.606919e+01	1.134521e+03
1.560000e-06	7.910782e-06	1.728622e-08	5.625979e+01	1.136154e+03
1.570000e-06	7.934666e-06	1.730845e-08	5.642964e+01	1.137570e+03
1.580000e-06	7.955753e-06	1.732653e-08	5.657961e+01	1.138783e+03
1.590000e-06	7.974059e-06	1.734006e-08	5.670980e+01	1.139802e+03
1.600000e-06	7.989373e-06	1.735061e-08	5.681871e+01	1.140634e+03
1.610000e-06	8.001571e-06	1.735967e-08	5.690546e+01	1.141278e+03
1.620000e-06	8.010643e-06	1.736578e-08	5.696998e+01	1.141732e+03
1.630000e-06	8.016783e-06	1.736880e-08	5.701364e+01	1.141990e+03
1.640000e-06	8.020170e-06	1.737055e-08	5.703773e+01	1.142045e+03
1.650000e-06	8.020700e-06	1.737038e-08	5.704150e+01	1.141892e+03
1.660000e-06	8.018479e-06	1.736337e-08	5.702571e+01	1.141527e+03
1.670000e-06	8.013647e-06	1.735479e-08	5.699134e+01	1.140948e+03
1.680000e-06	8.006124e-06	1.734445e-08	5.693784e+01	1.140161e+03
1.690000e-06	7.995941e-06	1.733054e-08	5.686542e+01	1.139172e+03
1.700000e-06	7.982931e-06	1.731425e-08	5.677290e+01	1.137993e+03
1.710000e-06	7.967144e-06	1.729773e-08	5.666063e+01	1.136638e+03
1.720000e-06	7.948968e-06	1.727979e-08	5.653136e+01	1.135123e+03
1.730000e-06	7.928466e-06	1.721797e-08	5.638555e+01	1.133465e+03
1.740000e-06	7.905138e-06	1.715871e-08	5.621965e+01	1.131680e+03
1.750000e-06	7.878359e-06	1.716406e-08	5.602920e+01	1.129782e+03
1.760000e-06	7.847977e-06	1.715418e-08	5.581313e+01	1.127780e+03
1.770000e-06	7.814593e-06	1.711373e-08	5.557571e+01	1.125680e+03
1.780000e-06	7.778855e-06	1.710348e-08	5.532155e+01	1.123482e+03
1.790000e-06	7.740791e-06	1.707718e-08	5.505085e+01	1.121183e+03
1.800000e-06	7.700647e-06	1.697624e-08	5.476536e+01	1.118772e+03
1.810000e-06	7.658313e-06	1.699111e-08	5.446428e+01	1.116234e+03
1.820000e-06	7.613354e-06	1.696754e-08	5.414454e+01	1.113550e+03
1.830000e-06	7.565744e-06	1.692416e-08	5.380595e+01	1.110698e+03
1.840000e-06	7.515196e-06	1.694064e-08	5.344646e+01	1.107653e+03
1.850000e-06	7.461577e-06	1.683176e-08	5.306514e+01	1.104392e+03
1.860000e-06	7.405173e-06	1.680779e-08	5.266400e+01	1.100890e+03
1.870000e-06	7.346168e-06	1.672456e-08	5.224437e+01	1.097128e+03
1.880000e-06	7.284591e-06	1.665144e-08	5.180645e+01	1.093089e+03
1.890000e-06	7.220214e-06	1.665442e-08	5.134861e+01	1.088761e+03
1.900000e-06	7.152990e-06	1.653133e-08	5.087053e+01	1.084140e+03
1.910000e-06	7.082926e-06	1.647538e-08	5.037225e+01	1.079228e+03
1.920000e-06	7.010062e-06	1.640094e-08	4.985406e+01	1.074030e+03
1.930000e-06	6.934597e-06	1.631598e-08	4.931737e+01	1.068560e+03
1.940000e-06	6.856359e-06	1.622991e-08	4.876096e+01	1.062833e+03
1.950000e-06	6.775432e-06	1.612702e-08	4.818542e+01	1.056866e+03
1.960000e-06	6.692027e-06	1.606779e-08	4.759226e+01	1.050675e+03
1.970000e-06	6.606154e-06	1.593084e-08	4.698155e+01	1.044276e+03
1.980000e-06	6.517811e-06	1.583605e-08	4.635328e+01	1.037678e+03
1.990000e-06	6.427161e-06	1.575023e-08	4.570859e+01	1.030885e+03
2.000000e-06	6.334375e-06	1.565290e-08	4.504872e+01	1.023896e+03
2.010000e-06	6.239282e-06	1.553342e-08	4.437244e+01	1.016703e+03
2.020000e-06	6.141940e-06	1.541592e-08	4.368016e+01	1.009293e+03
2.030000e-06	6.042493e-06	1.531272e-08	4.297292e+01	1.001650e+03
2.040000e-06	5.940839e-06	1.517295e-08	4.224997e+01	9.937553e+02
2.050000e-06	5.836968e-06	1.504316e-08	4.151127e+01	9.855913e+02
2.060000e-06	5.731123e-06	1.491228e-08	4.075852e+01	9.771432e+02
2.070000e-06	5.623398e-06	1.479482e-08	3.999240e+01	9.684002e+02
2.080000e-06	5.513664e-06	1.464656e-08	3.921200e+01	9.593566e+02
2.090000e-06	5.401894e-06	1.451091e-08	3.841712e+01	9.500118e+02
2.100000e-06	5.288101e-06	1.437736e-08	3.760784e+01	9.403698e+02
2.110000e-06	5.172280e-06	1.422026e-08	3.678415e+01	9.304372e+02
2.120000e-06	5.054411e-06	1.405960e-08	3.594589e+01	9.202218e+02
2.130000e-06	4.934622e-06	1.390329e-08	3.509397e+01	9.097295e+02
2.140000e-06	4.813075e-06	1.374681e-08	3.422956e+01	8.989630e+02
2.150000e-06	4.689830e-06	1.357594e-08	3.335307e+01	8.879195e+02
2.160000e-06	4.564847e-06	1.340320e-08	3.246421e+01	8.765903e+02
2.170000e-06	4.438156e-06	1.322408e-08	3.156322e+01	8.649605e+02
2.180000e-06	4.309819e-06	1.304163e-08	3.065051e+01	8.530099e+02
2.190000e-06	4.179957e-06	1.284763e-08	2.972696e+01	8.407154e+02
2.200000e-06	4.048618e-06	1.265976e-08	2.879290e+01	8.280527e+02
2.210000e-06	3.915724e-06	1.246300e-08	2.784779e+01	8.149994e+02
2.220000e-06	3.781299e-06	1.225718e-08	2.689179e+01	8.015371e+02
2.230000e-06	3.645355e-06	1.204824e-08	2.592498e+01	7.876533e+02
2.240000e-06	3.508079e-06	1.183210e-08	2.494870e+01	7.733421e+02
2.250000e-06	3.369552e-06	1.160630e-08	2.396354e+01	7.586038e+02
2.260000e-06	3.229675e-06	1.137498e-08	2.296876e+01	7.434435e+02
2.270000e-06	3.088440e-06	1.114081e-08	2.196432e+01	7.278690e+02
2.280000e-06	2.945955e-06	1.089788e-08	2.095100e+01	7.118871e+02
2.290000e-06	2.802429e-06	1.064923e-08	1.993027e+01	6.955008e+02
2.300000e-06	2.657896e-06	1.039479e-08	1.890239e+01	6.787064e+02
2.310000e-06	2.512405e-06	1.013437e-08	1.786769e+01	6.614916e+02
2.320000e-06	2.366102e-06	9.861914e-09	1.682721e+01	6.438342e+02
2.330000e-06	2.219020e-06	9.583569e-09	1.578120e+01	6.257035e+02
2.340000e-06	2.071192e-06	9.300487e-09	1.472987e+01	6.070617e+02
2.350000e-06	1.922666e-06	9.005899e-09	1.367359e+01	5.878671e+02
2.360000e-06	1.773460e-06	8.702088e-09	1.261247e+01	5.680782e+02
2.370000e-06	1.623629e-06	8.393117e-09	1.154690e+01	5.476571e+02
2.380000e-06	1.473345e-06	8.075952e-09	1.047811e+01	5.265733e+02
2.390000e-06	1.322681e-06	7.746856e-09	9.406626e+00	5.048051e+02
2.400000e-06	1.171561e-06	7.404698e-09	8.331891e+00	4.823401e+02
2.410000e-06	1.020034e-06	7.052257e-09	7.254263e+00	4.591737e+02
2.420000e-06	8.681260e-07	6.689049e-09	6.173926e+00	4.353049e+02
2.430000e-06	7.158699e-07	6.313836e-09	5.091114e+00	4.107318e+02
2.440000e-06	5.633680e-07	5.929853e-09	4.006553e+00	3.854452e+02
2.450000e-06	4.106745e-07	5.534228e-09	2.920629e+00	3.594225e+02
2.460000e-06	2.578115e-07	5.124736e-09	1.833500e+00	3.326233e+02
2.470000e-06	1.048403e-07	4.700906e-09	7.456019e-01	3.049862e+02
2.480000e-06	-4.818537e-08	4.263523e-09	-3.426841e-01	2.764288e+02
2.490000e-06	-2.012424e-07	3.811378e-09	-1.431193e+00	2.468511e+02
2.500000e-06	-3.541958e-07	3.340365e-09	-2.518965e+00	2.161424e+02
2.510000e-06	-5.070361e-07	2.851662e-09	-3.605932e+00	1.841914e+02
2.520000e-06	-6.597788e-07	2.343869e-09	-4.692206e+00	1.508983e+02
2.530000e-06	-8.123272e-07	1.815111e-09	-5.777097e+00	1.161891e+02
2.540000e-06	-9.645845e-07	1.265874e-09	-6.859918e+00	8.002864e+01
2.550000e-06	-1.116416e-06	6.939068e-10	-7.939708e+00	4.243265e+01
2.560000e-06	-1.267781e-06	1.005290e-10	-9.016186e+00	3.476714e+00
2.570000e-06	-1.418677e-06	-5.114269e-10	-1.008933e+01	-3.669936e+01
2.580000e-06	-1.569106e-06	-1.140270e-09	-1.115915e+01	-7.789208e+01
2.590000e-06	-1.719032e-06	-1.783637e-09	-1.222539e+01	-1.198402e+02
2.600000e-06	-1.868333e-06	-2.436646e-09	-1.328718e+01	-1.622355e+02
2.610000e-06	-2.016888e-06	-3.091699e-09	-1.434368e+01	-2.047382e+02
2.620000e-06	-2.164666e-06	-3.741923e-09	-1.539464e+01	-2.469949e+02
2.630000e-06	-2.311638e-06	-4.379900e-09	-1.643988e+01	-2.886581e+02
2.640000e-06	-2.457744e-06	-5.003153e-09	-1.747895e+01	-3.294046e+02
2.650000e-06	-2.602983e-06	-5.609331e-09	-1.851186e+01	-3.689527e+02
2.660000e-06	-2.747230e-06	-6.193868e-09	-1.953771e+01	-4.070751e+02
2.670000e-06	-2.890381e-06	-6.751998e-09	-2.055577e+01	-4.436068e+02
2.680000e-06	-3.032399e-06	-7.282450e-09	-2.156577e+01	-4.784486e+02
2.690000e-06	-3.173227e-06	-7.786741e-09	-2.256731e+01	-5.115643e+02
2.700000e-06	-3.312766e-06	-8.264784e-09	-2.355968e+01	-5.429744e+02
2.710000e-06	-3.450998e-06	-8.718645e-09	-2.454276e+01	-5.727447e+02
2.720000e-06	-3.587984e-06	-9.150746e-09	-2.551697e+01	-6.009738e+02
2.730000e-06	-3.723598e-06	-9.565007e-09	-2.648143e+01	-6.277794e+02
2.740000e-06	-3.857796e-06	-9.963044e-09	-2.743582e+01	-6.532846e+02
2.750000e-06	-3.990641e-06	-1.034239e-08	-2.838058e+01	-6.776072e+02
2.760000e-06	-4.122089e-06	-1.070103e-08	-2.931541e+01	-7.008509e+02
2.770000e-06	-4.252149e-06	-1.104008e-08	-3.024037e+01	-7.231007e+02
2.780000e-06	-4.380797e-06	-1.136316e-08	-3.115529e+01	-7.444208e+02
2.790000e-06	-4.507899e-06	-1.167262e-08	-3.205921e+01	-7.648564e+02
2.800000e-06	-4.633461e-06	-1.197050e-08	-3.295218e+01	-7.844378e+02
2.810000e-06	-4.757449e-06	-1.225814e-08	-3.383396e+01	-8.031851e+02
2.820000e-06	-4.879699e-06	-1.253139e-08	-3.470338e+01	-8.211148e+02
2.830000e-06	-5.000168e-06	-1.279125e-08	-3.556012e+01	-8.382444e+02
2.840000e-06	-5.118766e-06	-1.304315e-08	-3.640357e+01	-8.545969e+02
2.850000e-06	-5.235323e-06	-1.328541e-08	-3.723250e+01	-8.702027e+02
2.860000e-06	-5.349760e-06	-1.351702e-08	-3.804635e+01	-8.851003e+02
2.870000e-06	-5.462038e-06	-1.373804e-08	-3.884485e+01	-8.993347e+02
2.880000e-06	-5.572180e-06	-1.394937e-08	-3.962815e+01	-9.129542e+02
2.890000e-06	-5.680323e-06	-1.415341e-08	-4.039724e+01	-9.260070e+02
2.900000e-06	-5.786519e-06	-1.434794e-08	-4.115248e+01	-9.385373e+02
2.910000e-06	-5.890667e-06	-1.453386e-08	-4.189316e+01	-9.505820e+02
2.920000e-06	-5.992603e-06	-1.471198e-08	-4.261811e+01	-9.621681e+02
2.930000e-06	-6.092247e-06	-1.488028e-08	-4.332676e+01	-9.733123e+02
2.940000e-06	-6.189794e-06	-1.504086e-08	-4.402049e+01	-9.840212e+02
